I,II,III,aVR,aVL,aVF,V1,V2,V3,V4,V5,V6
-53.68,-112.24,-58.56,82.96,0.0,-87.84,-9.76,-102.48,-200.08,-224.48,-141.52,-102.48
9.99,-33.93,24.63,151.51,58.79,-4.65,63.67,-38.81,-141.29,-165.69,-82.73,-48.57
41.44,-2.48,56.08,182.96,90.24,26.8,90.24,-17.12,-119.6,-148.88,-51.28,-26.88
13.91,-25.13,38.31,160.31,62.71,4.15,67.59,-44.65,-147.13,-166.65,-83.69,-49.53
-50.51,-74.91,-11.47,91.01,-6.59,-45.63,3.17,-109.07,-206.67,-231.07,-138.35,-104.19
-116.84,-165.64,-107.08,24.68,-63.16,-136.36,-68.04,-170.52,-273.0,-297.4,-209.56,-165.64
-151.31,-195.23,-141.55,-19.55,-102.51,-170.83,-117.15,-214.75,-317.23,-336.75,-248.91,-204.99
-142.29,-181.33,-122.77,-5.65,-93.49,-152.05,-108.13,-205.73,-303.33,-327.73,-235.01,-195.97
-77.75,-116.79,-63.11,49.13,-33.83,-92.39,-48.47,-150.95,-243.67,-268.07,-170.47,-131.43
0.28,-43.64,5.16,122.28,44.2,-19.24,24.68,-77.8,-165.64,-194.92,-87.56,-68.04
42.43,-6.37,47.31,174.19,91.23,18.03,71.71,-30.77,-128.37,-143.01,-64.93,-25.89
28.14,-10.9,52.54,174.54,76.94,18.38,81.82,-20.66,-123.14,-137.78,-54.82,-20.66
-30.31,-69.35,-1.03,125.85,23.37,-35.19,28.25,-79.11,-166.95,-186.47,-103.51,-64.47
-94.07,-152.63,-94.07,52.33,-35.51,-123.35,-55.03,-152.63,-250.23,-274.63,-167.27,-142.87
-147.64,-186.68,-128.12,-11.0,-98.84,-157.4,-113.48,-215.96,-313.56,-328.2,-235.48,-206.2
-147.29,-196.09,-142.41,-15.53,-98.49,-171.69,-118.01,-210.73,-318.09,-337.61,-244.89,-210.73
-105.14,-134.42,-75.86,26.62,-61.22,-105.14,-70.98,-163.7,-271.06,-290.58,-207.62,-168.58
-27.11,-61.27,-7.59,99.77,16.81,-36.87,-2.71,-95.43,-202.79,-217.43,-134.47,-95.43
22.79,-16.25,47.19,169.19,71.59,13.03,61.83,-35.77,-143.13,-157.77,-74.81,-35.77
41.57,-7.23,51.33,183.09,95.25,22.05,75.73,-12.11,-119.47,-143.87,-46.27,-21.87
7.1,-41.7,11.98,138.86,55.9,-17.3,46.14,-51.46,-158.82,-178.34,-100.26,-61.22
-73.87,-127.55,-64.11,82.29,-15.31,-98.27,-15.31,-117.79,-225.15,-244.67,-166.59,-127.55
-138.29,-177.33,-113.89,8.11,-89.49,-148.05,-74.85,-177.33,-284.69,-304.21,-240.77,-201.73
-175.58,-190.22,-112.14,-9.66,-131.66,-151.18,-77.98,-165.82,-282.94,-326.86,-273.18,-239.02
-144.13,-144.13,-66.05,12.03,-105.09,-105.09,-7.49,-75.81,-217.33,-280.77,-256.37,-227.09
-75.58,-56.06,22.02,70.82,-46.3,-17.02,104.98,70.82,-85.34,-182.94,-207.34,-178.06
-11.91,56.41,139.37,119.85,-7.03,95.45,222.33,232.09,75.93,-46.07,-119.27,-109.51
34.18,122.02,190.34,126.9,24.42,156.18,283.06,341.62,190.34,63.46,-68.3,-68.3
31.05,143.29,192.09,74.97,-3.11,167.69,265.29,367.77,226.25,94.49,-51.91,-71.43
-8.97,117.91,142.31,-23.61,-62.65,127.67,220.39,381.43,254.55,108.15,-82.17,-106.57
-41.14,56.46,41.82,-119.22,-99.7,46.7,183.34,412.7,300.46,149.18,-119.22,-148.5
-60.97,-7.29,-41.45,-153.69,-104.89,-26.81,192.79,451.43,387.99,241.59,-60.97,-139.05
-22.67,40.77,-17.79,-169.07,-86.11,11.49,245.73,504.37,514.13,397.01,16.37,-76.35
61.39,154.11,71.15,-148.45,-26.45,110.19,290.75,529.87,646.99,588.43,139.47,46.75
158.94,290.7,183.34,-119.22,36.94,237.02,280.94,446.86,739.66,793.34,359.02,232.14
249.89,425.57,274.29,-140.51,83.97,347.49,210.85,259.65,752.53,962.37,557.33,410.93
269.76,547.92,372.24,-218.24,40.4,460.08,20.88,-62.08,645.52,1045.68,704.08,552.8
216.19,650.51,474.83,-349.89,-91.25,562.67,-227.89,-462.13,445.55,1050.67,831.07,645.63
128.03,742.91,581.87,-501.49,-262.37,659.95,-457.57,-916.29,88.99,913.71,913.71,703.87
40.3,703.98,577.1,-545.3,-354.98,640.54,-564.82,-1213.86,-218.34,762.54,933.34,752.78
21.13,621.37,509.13,-501.03,-335.11,562.81,-579.11,-1359.91,-427.83,631.13,967.85,787.29
48.64,526.88,434.16,-375.92,-239.28,478.08,-512.56,-1342.16,-488.16,570.8,995.36,819.68
68.11,331.63,292.59,-141.73,-83.17,312.11,-332.05,-1244.61,-478.45,502.43,956.27,814.75
54.57,127.77,161.93,88.73,35.05,142.41,-130.87,-1141.03,-560.31,283.93,820.73,713.37
-14.49,0.15,117.27,214.87,34.31,58.71,-4.73,-1088.09,-726.97,-63.29,575.99,527.19
-117.28,-117.28,63.28,243.84,-29.44,-29.44,34.0,-1059.12,-912.72,-454.0,238.96,282.88
-242.17,-198.25,35.99,206.79,-149.45,-81.13,-42.09,-1115.69,-1140.09,-896.09,-81.13,35.99
-355.39,-321.23,-38.19,196.05,-233.39,-179.71,-130.91,-1175.23,-1385.07,-1321.63,-360.27,-184.59
-397.56,-456.12,-153.56,236.84,-217.0,-304.84,-168.2,-1183.24,-1573.64,-1637.08,-563.48,-319.48
-346.59,-512.51,-229.47,302.45,-122.11,-370.99,-180.67,-1088.35,-1493.39,-1561.71,-571.07,-346.59
-268.28,-497.64,-224.36,395.4,-19.4,-361.0,-102.36,-912.44,-1288.2,-1346.76,-522.04,-326.84
-199.73,-419.33,-146.05,459.07,44.27,-282.69,-9.41,-741.41,-1092.77,-1146.45,-468.13,-302.21
-173.16,-378.12,-99.96,485.64,65.96,-241.48,-26.76,-670.92,-968.6,-1012.52,-407.4,-261.0
-166.53,-381.25,-132.37,438.59,62.83,-259.25,-127.49,-654.53,-918.05,-932.69,-395.89,-259.25
-187.03,-406.63,-201.67,335.13,22.81,-304.15,-245.59,-626.23,-865.35,-879.99,-416.39,-294.39
-228.96,-433.92,-258.24,224.88,-38.64,-346.08,-331.44,-604.72,-834.08,-858.48,-458.32,-355.84
-243.91,-463.51,-312.23,170.89,-58.47,-390.31,-370.79,-561.11,-775.83,-809.99,-453.75,-375.67
-210.49,-449.61,-317.85,175.03,-25.05,-386.17,-317.85,-478.89,-669.21,-713.13,-391.05,-327.61
-141.07,-365.55,-243.55,215.17,29.73,-306.99,-209.39,-370.43,-526.59,-585.15,-316.75,-263.07
-48.4,-263.12,-160.64,263.92,107.76,-214.32,-72.8,-233.84,-380.24,-433.92,-224.08,-170.4
18.15,-186.81,-103.85,286.55,159.67,-147.77,3.51,-123.37,-255.13,-313.69,-152.65,-103.85
42.9,-162.06,-108.38,252.74,169.78,-137.66,42.9,-64.46,-181.58,-245.02,-123.02,-79.1
8.85,-186.35,-152.19,174.77,121.09,-171.71,43.01,-49.71,-181.47,-240.03,-127.79,-113.15
-64.67,-250.11,-215.95,96.37,42.69,-235.47,-10.99,-89.07,-211.07,-269.63,-181.79,-167.15
-108.48,-250.0,-225.6,13.52,-25.52,-240.24,-69.44,-132.88,-230.48,-279.28,-215.84,-191.44
-108.13,-195.97,-176.45,-25.17,-54.45,-186.21,-88.61,-127.65,-210.61,-259.41,-205.73,-186.21
-70.86,-129.42,-100.14,16.98,-26.94,-114.78,-36.7,-61.1,-139.18,-192.86,-144.06,-139.18
7.17,-46.51,-22.11,85.25,46.21,-36.75,46.21,21.81,-46.51,-105.07,-66.03,-61.15
61.95,13.15,42.43,144.91,100.99,27.79,120.51,96.11,37.55,-35.65,-21.01,-11.25
75.85,31.93,61.21,158.81,110.01,46.57,139.29,114.89,61.21,-11.99,-11.99,-2.23
36.5,2.34,31.62,114.58,65.78,16.98,114.58,90.18,41.38,-31.82,-26.94,-41.58
-39.59,-68.87,-34.71,43.37,-10.31,-54.23,48.25,18.97,-24.95,-98.15,-103.03,-112.79
-104.01,-147.93,-113.77,-11.29,-64.97,-133.29,-16.17,-35.69,-84.49,-143.05,-167.45,-162.57
-121.78,-170.58,-141.3,-38.82,-82.74,-155.94,-33.94,-53.46,-102.26,-151.06,-175.46,-175.46
-90.33,-129.37,-100.09,-12.25,-56.17,-114.73,-7.37,-26.89,-80.57,-114.73,-144.01,-144.01
-7.14,-41.3,-26.66,41.66,17.26,-36.42,61.18,46.54,-12.02,-51.06,-75.46,-70.58
61.41,27.25,41.89,110.21,85.81,32.13,134.61,129.73,61.41,22.37,7.73,-2.03
92.86,53.82,68.46,141.66,117.26,58.7,170.94,166.06,102.62,53.82,24.54,29.42
70.21,21.41,36.05,123.89,99.49,26.29,153.17,148.29,94.61,45.81,1.89,6.77
0.91,-52.77,-33.25,69.23,35.07,-43.01,83.87,83.87,44.83,-8.85,-62.53,-57.65
-70.3,-99.58,-80.06,-16.62,-45.9,-89.82,12.66,17.54,-21.5,-70.3,-123.98,-133.74
-109.65,-129.17,-109.65,-60.85,-90.13,-119.41,-36.45,-31.57,-65.73,-104.77,-168.21,-173.09
-95.75,-110.39,-90.87,-46.95,-81.11,-100.63,-22.55,-17.67,-51.83,-85.99,-149.43,-154.31
-26.33,-45.85,-36.09,2.95,-11.69,-40.97,41.99,46.87,7.83,-26.33,-80.01,-94.65
46.82,22.42,32.18,80.98,61.46,27.3,115.14,120.02,76.1,41.94,-6.86,-11.74
98.73,74.33,79.21,123.13,113.37,74.33,167.05,171.93,128.01,93.85,45.05,40.17
84.44,64.92,79.56,123.48,99.08,69.8,177.16,186.92,138.12,99.08,50.28,50.28
30.87,11.35,25.99,69.91,45.51,16.23,123.59,128.47,89.43,40.63,-8.17,-13.05
-32.89,-62.17,-57.29,-8.49,-18.25,-62.17,50.07,59.83,25.67,-23.13,-86.57,-86.57
-76.7,-125.5,-130.38,-62.06,-57.18,-130.38,1.38,11.14,-8.38,-62.06,-125.5,-135.26
-90.99,-139.79,-134.91,-56.83,-66.59,-139.79,-3.15,11.49,-3.15,-56.83,-100.75,-134.91
-43.96,-73.24,-68.36,-19.56,-29.32,-73.24,39.0,48.76,43.88,-4.92,-53.72,-92.76
29.19,14.55,19.43,48.71,38.95,14.55,107.27,121.91,112.15,68.23,-4.97,-19.61
88.85,79.09,83.97,103.49,93.73,79.09,171.81,186.45,171.81,127.89,69.33,35.17
107.63,88.11,88.11,117.39,117.39,88.11,195.47,210.11,190.59,146.67,97.87,63.71
68.28,39.0,39.0,82.92,82.92,39.0,151.24,170.76,146.36,102.44,39.0,19.48
1.95,-22.45,-27.33,6.83,11.71,-27.33,80.03,109.31,84.91,36.11,-27.33,-51.73
-57.59,-86.87,-96.63,-62.47,-47.83,-91.75,20.49,44.89,30.25,-23.43,-96.63,-116.15
-85.12,-133.92,-138.8,-70.48,-65.6,-138.8,7.6,32.0,22.24,-36.32,-114.4,-133.92
-48.79,-92.71,-102.47,-43.91,-34.15,-97.59,34.17,63.45,68.33,0.01,-82.95,-102.47
19.76,-4.64,-14.4,14.88,24.64,-9.52,92.96,127.12,132.0,73.44,10.0,-38.8
83.43,73.67,68.79,78.55,83.43,68.79,161.51,190.79,210.31,151.75,73.67,29.75
114.88,105.12,100.24,110.0,114.88,100.24,192.96,232.0,236.88,192.96,95.36,70.96
87.35,72.71,72.71,97.11,92.23,72.71,165.43,214.23,219.11,170.31,77.59,48.31
27.81,13.17,8.29,27.81,32.69,8.29,105.89,149.81,159.57,110.77,22.93,-11.23
-33.64,-62.92,-77.56,-48.28,-28.76,-72.68,29.8,83.48,88.36,44.44,-48.28,-72.68
-72.99,-107.15,-121.79,-82.75,-63.23,-116.91,-9.55,53.89,53.89,5.09,-87.63,-112.03
-49.33,-78.61,-103.01,-83.49,-49.33,-93.25,9.23,72.67,82.43,33.63,-68.85,-98.13
10.33,-18.95,-43.35,-23.83,10.33,-33.59,73.77,137.21,151.85,98.17,-4.31,-43.35
78.6,63.96,44.44,49.32,73.72,54.2,146.92,215.24,239.64,181.08,83.48,34.68
125.63,106.11,86.59,96.35,125.63,96.35,203.71,272.03,306.19,247.63,125.63,96.35
125.98,116.22,91.82,82.06,116.22,101.58,174.78,252.86,291.9,247.98,125.98,82.06
77.29,72.41,43.13,23.61,62.65,57.77,126.09,209.05,243.21,209.05,96.81,38.25
-1.11,-10.87,-35.27,-45.03,-10.87,-25.51,52.57,135.53,169.69,130.65,8.65,-35.27
-49.8,-64.44,-93.72,-98.6,-59.56,-79.08,-1.0,86.84,111.24,81.96,-30.28,-83.96
-49.45,-59.21,-93.37,-112.89,-64.09,-78.73,-5.53,87.19,111.59,77.43,-34.81,-78.73
2.46,-21.94,-60.98,-60.98,-7.3,-41.46,41.5,143.98,163.5,129.34,7.34,-31.7
75.61,51.21,12.17,12.17,65.85,31.69,119.53,222.01,256.17,212.25,75.61,41.45
135.27,120.63,81.59,66.95,120.63,101.11,179.19,296.31,335.35,281.67,140.15,105.99
149.17,139.41,100.37,75.97,134.53,119.89,197.97,319.97,368.77,310.21,163.81,124.77
124.46,104.94,51.26,26.86,104.94,75.66,158.62,285.5,344.06,285.5,129.34,85.42
48.37,43.49,-5.31,-44.35,23.97,19.09,87.41,209.41,282.61,228.93,77.65,23.97
-11.17,-11.17,-64.85,-118.53,-40.45,-40.45,18.11,144.99,223.07,169.39,37.63,-35.57
-24.06,-19.18,-82.62,-150.94,-58.22,-53.34,-4.54,132.1,205.3,156.5,24.74,-53.34
7.39,7.39,-56.05,-119.49,-26.77,-26.77,31.79,168.43,246.51,207.47,46.43,-17.01
80.82,75.94,7.62,-50.94,46.66,41.78,95.46,241.86,315.06,276.02,110.1,56.42
173.77,149.37,56.65,2.97,139.61,100.57,168.89,325.05,403.13,354.33,193.29,134.73
200.34,180.82,92.98,34.42,166.18,136.9,200.34,366.26,449.22,395.54,219.86,166.18
182.57,158.17,65.45,11.77,148.41,109.37,182.57,348.49,446.09,382.65,197.21,143.53
108.39,93.75,10.79,-47.77,74.23,49.83,123.03,303.59,401.19,337.75,162.07,88.87
37.18,22.54,-60.42,-118.98,3.02,-21.38,61.58,247.02,354.38,290.94,105.5,32.3
2.71,-2.17,-90.01,-168.09,-41.21,-46.09,17.35,207.67,324.79,266.23,71.03,-2.17
21.49,26.37,-66.35,-163.95,-27.31,-22.43,21.49,226.45,338.69,294.77,89.81,21.49
86.03,90.91,-6.69,-109.17,32.35,42.11,81.15,295.87,417.87,369.07,149.47,86.03
164.06,173.82,71.34,-45.78,105.5,120.14,154.3,383.66,495.9,456.86,237.26,168.94
215.97,225.73,118.37,-3.63,157.41,172.05,196.45,430.69,547.81,508.77,279.41,215.97
216.32,201.68,89.44,1.6,167.52,143.12,206.56,450.56,567.68,528.64,299.28,230.96
157.87,133.47,26.11,-42.21,113.95,79.79,157.87,421.39,538.51,499.47,270.11,192.03
89.23,59.95,-52.29,-120.61,45.31,1.39,79.47,352.75,489.39,440.59,191.71,113.63
45.42,21.02,-100.98,-183.94,-3.38,-42.42,35.66,318.7,465.1,416.3,157.66,79.58
45.77,36.01,-90.87,-203.11,-12.79,-27.43,16.49,319.05,475.21,431.29,158.01,70.17
97.68,97.68,-34.08,-165.84,29.36,29.36,63.52,370.96,536.88,502.72,214.8,122.08
175.71,190.35,53.71,-102.45,97.63,122.03,126.91,453.87,619.79,600.27,302.59,209.87
240.25,264.65,123.13,-52.55,157.29,191.45,181.69,533.05,698.97,684.33,381.77,279.29
263.91,273.67,122.39,-43.53,180.95,195.59,200.47,561.59,727.51,717.75,405.43,312.71
229.44,229.44,73.28,-82.88,151.36,151.36,161.12,546.64,707.68,697.92,380.72,288.0
163.11,177.75,16.71,-163.85,75.27,94.79,94.79,485.19,646.23,646.23,333.91,231.43
103.57,93.81,-72.11,-223.39,25.49,10.85,40.13,445.17,630.61,615.97,293.89,186.53
85.8,80.92,-89.88,-250.92,2.84,-6.92,12.6,437.16,632.36,612.84,271.24,173.64
131.89,131.89,-53.55,-238.99,39.17,39.17,44.05,488.13,693.09,678.45,322.21,219.73
210.2,215.08,19.88,-180.2,107.72,117.48,112.6,566.44,795.8,776.28,410.28,298.04
283.63,303.15,103.07,-126.29,171.39,200.67,166.51,634.99,878.99,874.11,493.47,376.35
319.96,354.12,149.16,-104.6,197.96,251.64,193.08,685.96,929.96,934.84,549.32,427.32
302.19,331.47,121.63,-132.13,180.19,224.11,175.31,687.71,941.47,946.35,560.83,424.19
247.53,296.33,76.73,-216.07,110.89,184.09,101.13,633.05,886.81,906.33,506.17,374.41
190.96,234.88,0.64,-297.04,49.44,117.76,25.04,581.36,835.12,854.64,459.36,322.72
156.49,195.53,-43.59,-341.27,14.97,73.53,-14.31,551.77,820.17,839.69,449.29,307.77
180.15,228.95,-19.93,-342.01,28.87,102.07,-5.29,580.31,858.47,877.99,482.71,331.43
244.69,298.37,44.61,-287.23,88.53,171.49,54.37,659.49,947.41,966.93,566.77,410.61
332.48,376.4,108.0,-223.84,176.32,239.76,122.64,732.64,1054.72,1074.24,664.32,498.4
394.15,447.83,164.79,-196.33,223.35,306.31,155.03,784.55,1116.39,1145.67,721.11,555.19
399.38,453.06,160.26,-210.62,223.7,306.66,140.74,780.02,1131.38,1160.66,740.98,555.54
340.93,409.25,121.33,-269.07,160.37,262.85,87.17,736.21,1092.45,1136.37,716.69,536.13
267.41,350.37,62.45,-347.47,81.97,203.97,18.53,672.45,1038.45,1087.25,672.45,482.13
223.6,316.32,18.64,-415.68,28.4,165.04,-54.56,618.88,989.76,1043.44,648.16,438.32
238.59,326.43,9.23,-439.73,33.63,165.39,-63.97,624.11,994.99,1053.55,663.15,453.31
290.5,358.82,36.74,-387.82,95.3,197.78,-21.82,676.02,1051.78,1120.1,710.18,519.86
368.53,446.61,119.65,-324.43,163.57,280.69,46.45,744.29,1139.57,1203.01,793.09,602.77
433.07,530.67,198.83,-279.41,218.35,364.75,101.23,803.95,1218.75,1277.31,857.63,662.43
451.85,554.33,217.61,-270.39,232.25,383.53,105.37,808.09,1237.53,1300.97,886.17,676.33
412.5,519.86,183.14,-314.62,188.02,349.06,61.14,768.74,1203.06,1281.14,856.58,641.86
346.17,448.65,107.05,-385.83,121.69,277.85,-14.95,692.65,1141.61,1219.69,795.13,585.29
271.99,403.75,71.91,-455.13,37.75,237.83,-98.89,603.83,1062.55,1150.39,735.59,530.63
254.22,390.86,54.14,-487.54,15.1,220.06,-126.42,571.42,1025.26,1122.86,717.82,512.86
275.91,417.43,90.47,-446.33,41.67,251.51,-99.85,588.23,1046.95,1149.43,754.15,544.31
344.46,471.34,144.38,-372.9,115.1,305.42,-31.3,656.78,1110.62,1213.1,842.22,627.5
422.77,549.65,212.93,-314.11,188.53,378.85,37.25,715.57,1164.53,1276.77,901.01,696.05
449.34,585.98,254.14,-282.66,215.1,420.06,68.7,727.5,1181.34,1288.7,927.58,712.86
416.93,568.21,246.13,-300.43,177.81,407.17,41.17,680.45,1144.05,1251.41,880.53,675.57
352.51,503.79,181.71,-364.85,113.39,342.75,-28.13,601.39,1060.11,1167.47,796.59,606.27
266.66,432.58,125.14,-431.18,27.54,276.42,-104.22,505.78,964.5,1062.1,700.98,510.66
222.43,398.11,95.55,-470.53,-16.69,246.83,-153.33,432.27,890.99,998.35,632.35,451.79
221.69,402.25,114.33,-441.99,-12.55,255.85,-144.31,416.89,870.73,973.21,631.61,446.17
266.71,452.15,178.87,-372.57,37.35,315.51,-79.77,457.03,891.35,1003.59,681.51,496.07
330.1,525.3,261.78,-294.54,100.74,393.54,-6.62,500.9,920.58,1032.82,720.5,549.7
357.61,552.81,308.81,-227.99,138.01,430.81,35.53,523.53,933.45,1026.17,728.49,567.45
338.44,519.0,289.64,-208.12,133.48,401.88,40.76,499.48,885.0,982.6,704.44,538.52
275.11,445.91,226.31,-247.05,79.91,333.67,1.83,426.39,802.15,889.99,621.59,465.43
186.95,362.63,157.67,-310.81,-3.37,260.15,-76.57,318.71,684.71,757.91,504.15,352.87
118.74,299.3,108.98,-349.74,-66.7,201.7,-125.26,240.74,596.98,655.54,421.3,279.78
104.45,289.89,109.33,-349.39,-80.99,197.17,-134.67,197.17,543.65,597.33,372.85,241.09
136.84,317.4,151.48,-282.84,-38.84,234.44,-92.52,210.04,541.88,595.56,375.96,253.96
195.35,375.91,224.63,-195.05,29.43,297.83,-9.61,273.43,575.99,629.67,434.47,312.47
240.37,406.29,269.65,-115.87,89.09,337.97,54.93,303.81,586.85,640.53,459.97,352.61
239.63,400.67,278.67,-82.45,98.11,337.23,63.95,288.43,547.07,600.75,425.07,337.23
185.64,346.68,239.32,-107.16,49.0,293.0,19.72,219.8,454.04,502.84,375.96,268.6
104.67,246.19,148.59,-158.85,-17.33,197.39,-46.61,133.95,343.79,382.83,260.83,163.23
40.25,172.01,74.41,-218.39,-76.87,123.21,-106.15,50.01,245.21,274.49,147.61,79.29
12.72,139.6,46.88,-236.16,-99.52,90.8,-128.8,2.96,183.52,203.04,100.56,22.48
24.65,146.65,73.45,-180.31,-72.95,107.61,-92.47,19.77,190.57,200.33,112.49,34.41
63.92,210.32,166.4,-97.12,-33.68,185.92,-14.16,68.8,234.72,239.6,156.64,93.2
132.47,249.59,205.67,-13.93,49.51,225.19,49.51,117.83,273.99,283.75,200.79,147.11
163.92,266.4,222.48,27.28,90.72,242.0,80.96,134.64,271.28,290.8,212.72,168.8
136.39,229.11,190.07,14.39,68.07,209.59,63.19,97.35,219.35,233.99,175.43,136.39
57.33,135.41,111.01,-30.51,3.65,120.77,-1.23,28.05,125.65,145.17,96.37,57.33
-13.88,49.56,25.16,-91.96,-57.8,34.92,-67.56,-52.92,34.92,44.68,10.52,-18.76
-58.11,-14.19,-33.71,-116.67,-92.27,-23.95,-106.91,-102.03,-33.71,-23.95,-53.23,-77.63
-49.09,-5.17,-19.81,-97.89,-78.37,-14.93,-93.01,-102.77,-39.33,-34.45,-63.73,-83.25
0.81,49.61,44.73,-33.35,-28.47,44.73,-28.47,-52.87,5.69,0.81,-18.71,-38.23
69.08,108.12,108.12,49.56,49.56,108.12,44.68,5.64,64.2,59.32,39.8,20.28
111.23,145.39,150.27,106.35,96.59,145.39,91.71,38.03,96.59,96.59,72.19,57.55
106.7,140.86,145.74,101.82,92.06,140.86,82.3,28.62,77.42,82.3,62.78,57.9
43.37,77.53,92.17,58.01,33.61,82.41,28.73,-29.83,14.09,18.97,4.33,-0.55
-25.27,-5.75,4.01,-15.51,-30.15,-0.87,-35.03,-98.47,-74.07,-64.31,-64.31,-64.31
-73.96,-59.32,-54.44,-69.08,-78.84,-59.32,-98.36,-171.56,-152.04,-142.28,-132.52,-132.52
-88.25,-68.73,-54.09,-68.73,-93.13,-63.85,-102.89,-180.97,-166.33,-161.45,-132.17,-137.05
-41.22,-21.7,-7.06,-21.7,-46.1,-16.82,-55.86,-129.06,-133.94,-129.06,-94.9,-99.78
27.05,31.93,51.45,66.09,31.93,41.69,22.17,-60.79,-65.67,-60.79,-21.75,-36.39
81.83,76.95,101.35,135.51,96.47,86.71,86.71,-1.13,3.75,-6.01,23.27,28.15
100.61,90.85,110.37,144.53,115.25,100.61,100.61,7.89,12.77,7.89,27.41,37.17
61.26,51.5,71.02,105.18,75.9,61.26,56.38,-36.34,-26.58,-36.34,-26.58,-7.06
-14.83,-9.95,14.45,33.97,-5.07,-0.19,-19.71,-117.31,-107.55,-107.55,-107.55,-83.15
-79.25,-84.13,-59.73,-25.57,-64.61,-74.37,-84.13,-181.73,-167.09,-167.09,-162.21,-147.57
-101.9,-106.78,-82.38,-48.22,-87.26,-97.02,-101.9,-199.5,-194.62,-199.5,-189.74,-160.46
-60.69,-75.33,-60.69,-21.65,-46.05,-70.45,-75.33,-172.93,-168.05,-177.81,-138.77,-138.77
-6.78,-31.18,-1.9,66.42,17.62,-16.54,2.98,-99.5,-99.5,-104.38,-79.98,-65.34
71.53,37.37,56.89,130.09,95.93,47.13,76.41,-26.07,-30.95,-45.59,-26.07,-1.67
107.86,68.82,83.46,156.66,132.26,73.7,107.86,5.38,5.38,-14.14,20.02,29.78
75.45,51.05,75.45,138.89,99.85,60.81,85.21,-17.27,-12.39,-41.67,-7.51,2.25
15.91,-8.49,11.03,69.59,35.43,1.27,25.67,-76.81,-76.81,-91.45,-86.57,-62.17
-65.06,-84.58,-55.3,3.26,-40.66,-69.94,-50.42,-148.02,-138.26,-157.78,-157.78,-128.5
-104.41,-119.05,-89.77,-36.09,-84.89,-104.41,-99.53,-197.13,-182.49,-192.25,-206.89,-177.61
-85.63,-90.51,-66.11,-31.95,-70.99,-80.75,-85.63,-178.35,-163.71,-173.47,-188.11,-163.71
-30.85,-45.49,-16.21,37.47,-11.33,-30.85,-16.21,-118.69,-108.93,-118.69,-123.57,-99.17
56.94,32.54,47.18,100.86,76.46,37.42,56.94,-40.66,-35.78,-35.78,-45.54,-21.14
94.21,79.57,103.97,152.77,113.73,89.33,108.85,11.25,16.13,11.25,1.49,25.89
94.56,55.52,75.04,153.12,123.84,65.28,109.2,16.48,16.48,6.72,1.84,21.36
45.87,21.47,36.11,89.79,65.39,26.35,50.75,-37.09,-41.97,-51.73,-41.97,-32.21
-27.65,-47.17,-32.53,11.39,-13.01,-42.29,-27.65,-110.61,-105.73,-120.37,-120.37,-110.61
-76.34,-110.5,-100.74,-37.3,-56.82,-105.62,-81.22,-164.18,-159.3,-169.06,-178.82,-159.3
-95.51,-110.15,-85.75,-36.95,-75.99,-100.39,-85.75,-168.71,-154.07,-163.83,-183.35,-168.71
-68.0,-58.24,-14.32,14.96,-53.36,-38.72,-48.48,-126.56,-102.16,-107.04,-131.44,-121.68
14.91,10.03,44.19,88.11,34.43,24.67,34.43,-43.65,-19.25,-24.13,-48.53,-33.89
79.45,59.93,89.21,147.77,103.85,74.57,89.21,16.01,25.77,30.65,1.37,16.01
88.47,78.71,112.87,161.67,107.99,93.35,98.23,25.03,39.67,39.67,5.51,25.03
58.88,49.12,73.52,112.56,73.52,58.88,58.88,-9.44,-4.56,-4.56,-28.96,-4.56
-17.21,-17.21,12.07,41.35,-2.57,-2.57,-12.33,-75.77,-75.77,-75.77,-100.17,-70.89
-76.75,-81.63,-57.23,-23.07,-62.11,-71.87,-71.87,-135.31,-135.31,-125.55,-164.59,-135.31
-99.4,-99.4,-75.0,-50.6,-89.64,-89.64,-94.52,-157.96,-148.2,-153.08,-187.24,-153.08
-67.95,-67.95,-43.55,-19.15,-58.19,-58.19,-67.95,-131.39,-126.51,-121.63,-155.79,-126.51
0.6,10.36,34.76,44.52,5.48,20.12,0.6,-57.96,-48.2,-43.32,-82.36,-57.96
64.27,59.39,88.67,127.71,78.91,74.03,69.15,5.71,25.23,34.99,-13.81,15.47
105.48,95.72,115.24,149.4,120.12,105.48,95.72,37.16,56.68,71.32,22.52,51.8
87.71,77.95,92.59,121.87,97.47,82.83,77.95,24.27,34.03,48.67,4.75,34.03
23.29,13.53,28.17,57.45,33.05,18.41,8.65,-45.03,-40.15,-25.51,-64.55,-35.27
-47.92,-67.44,-52.8,-8.88,-33.28,-62.56,-62.56,-116.24,-111.36,-96.72,-130.88,-101.6
-82.39,-92.15,-82.39,-57.99,-72.63,-87.27,-106.79,-145.83,-150.71,-131.19,-170.23,-140.95
-73.37,-68.49,-53.85,-44.09,-68.49,-63.61,-88.01,-131.93,-136.81,-127.05,-166.09,-131.93
-8.83,-13.71,-3.95,15.57,-3.95,-8.83,-23.47,-67.39,-62.51,-57.63,-96.67,-67.39
64.32,35.04,44.8,98.48,83.84,39.92,49.68,10.64,15.52,20.4,-18.64,5.76
106.47,82.07,96.71,150.39,125.99,86.95,91.83,57.67,62.55,72.31,28.39,52.79
106.82,97.06,106.82,131.22,116.58,101.94,82.42,38.5,53.14,62.9,14.1,48.26
53.25,53.25,63.01,72.77,58.13,58.13,19.09,-19.95,-5.31,-0.43,-44.35,-10.19
-25.15,-10.51,4.13,-0.75,-25.15,-5.63,-54.43,-93.47,-88.59,-78.83,-117.87,-88.59
-73.84,-64.08,-54.32,-59.2,-73.84,-59.2,-108.0,-147.04,-142.16,-127.52,-171.44,-142.16
-88.13,-78.37,-58.85,-53.97,-83.25,-68.61,-112.53,-146.69,-146.69,-141.81,-175.97,-146.69
-31.34,-31.34,-21.58,-11.82,-26.46,-26.46,-70.38,-99.66,-99.66,-89.9,-119.18,-94.78
41.81,17.41,27.17,75.97,56.45,22.29,17.41,-21.63,-16.75,-16.75,-50.91,-11.87
96.59,81.95,96.59,135.63,111.23,86.83,77.07,42.91,52.67,47.79,8.75,42.91
115.37,110.49,120.25,139.77,120.25,115.37,90.97,56.81,61.69,61.69,22.65,56.81
71.14,71.14,85.78,100.42,76.02,76.02,46.74,7.7,22.34,17.46,-21.58,12.58
9.69,9.69,14.57,19.45,9.69,9.69,-29.35,-78.15,-53.75,-63.51,-92.79,-58.63
-49.85,-49.85,-49.85,-49.85,-49.85,-49.85,-103.53,-142.57,-132.81,-127.93,-162.09,-132.81
-72.5,-77.38,-77.38,-67.62,-72.5,-77.38,-135.94,-174.98,-160.34,-165.22,-194.5,-160.34
-36.17,-50.81,-55.69,-36.17,-31.29,-55.69,-104.49,-148.41,-133.77,-133.77,-163.05,-128.89
17.74,12.86,22.62,42.14,22.62,17.74,-31.06,-70.1,-70.1,-70.1,-84.74,-50.58
66.77,91.17,120.45,115.57,66.77,105.81,42.37,-1.55,3.33,-1.55,-6.43,17.97
112.86,117.74,132.38,142.14,117.74,122.62,78.7,29.9,44.54,29.9,25.02,54.3
90.21,99.97,114.61,114.61,90.21,104.85,46.29,-2.51,7.25,-2.51,-2.51,21.89
25.79,35.55,50.19,50.19,25.79,40.43,-23.01,-66.93,-57.17,-71.81,-57.17,-42.53
-40.54,-40.54,-30.78,-21.02,-35.66,-35.66,-94.22,-147.9,-128.38,-138.14,-128.38,-108.86
-84.77,-99.41,-84.77,-45.73,-70.13,-94.53,-128.69,-182.37,-167.73,-177.49,-172.61,-148.21
-65.99,-70.87,-61.11,-41.59,-61.11,-65.99,-109.91,-168.47,-158.71,-153.83,-158.71,-124.55
-6.33,-11.21,-1.45,18.07,-1.45,-6.33,-55.13,-108.81,-108.81,-103.93,-103.93,-69.77
61.94,52.18,66.82,96.1,71.7,57.06,18.02,-35.66,-40.54,-30.78,-16.14,3.38
104.09,104.09,123.61,143.13,113.85,113.85,69.93,11.37,-3.27,1.61,26.01,45.53
104.44,84.92,99.56,143.48,119.08,89.8,55.64,1.96,-12.68,-7.8,-2.92,31.24
50.87,31.35,45.99,89.91,65.51,36.23,6.95,-51.61,-61.37,-66.25,-56.49,-17.45
-32.41,-27.53,-3.13,16.39,-22.65,-17.77,-66.57,-130.01,-139.77,-139.77,-130.01,-100.73
-85.98,-85.98,-61.58,-37.18,-76.22,-76.22,-129.9,-183.58,-193.34,-198.22,-188.46,-159.18
-85.63,-90.51,-70.99,-41.71,-75.87,-80.75,-129.55,-188.11,-192.99,-192.99,-192.99,-158.83
-38.6,-43.48,-23.96,5.32,-28.84,-33.72,-82.52,-150.84,-150.84,-155.72,-150.84,-121.56
34.55,39.43,58.95,73.59,39.43,49.19,-14.25,-82.57,-87.45,-82.57,-77.69,-53.29
99.09,99.09,113.73,128.37,103.97,103.97,50.29,-22.91,-32.67,-27.79,-3.39,11.25
108.11,112.99,132.51,147.15,112.99,122.75,59.31,-18.77,-28.53,-23.65,0.75,25.15
68.76,83.4,102.92,102.92,68.76,93.16,24.84,-53.24,-72.76,-67.88,-33.72,-14.2
7.31,12.19,21.95,26.83,7.31,17.07,-46.37,-124.45,-143.97,-134.21,-109.81,-85.41
-61.99,-71.75,-57.11,-27.83,-52.23,-66.87,-110.79,-188.87,-203.51,-208.39,-179.11,-144.95
-84.64,-99.28,-84.64,-45.6,-70.0,-94.4,-138.32,-216.4,-235.92,-226.16,-201.76,-172.48
-67.83,-77.59,-48.31,-4.39,-48.31,-62.95,-97.11,-180.07,-194.71,-194.71,-165.43,-136.15
0.72,-13.92,15.36,69.04,20.24,0.72,-33.44,-111.52,-121.28,-121.28,-96.88,-67.6
79.03,64.39,83.91,127.83,93.67,74.15,35.11,-47.85,-57.61,-57.61,-28.33,-3.93
100.72,90.96,120.24,164.16,120.24,105.6,66.56,-21.28,-31.04,-21.28,-1.76,32.4
87.83,73.19,92.71,136.63,102.47,82.95,48.79,-43.93,-58.57,-48.81,-24.41,14.63
18.53,3.89,28.29,77.09,38.05,13.65,-20.51,-108.35,-127.87,-118.11,-88.83,-59.55
-52.68,-67.32,-42.92,5.88,-33.16,-57.56,-91.72,-184.44,-203.96,-194.2,-164.92,-130.76
-87.15,-92.03,-72.51,-43.23,-77.39,-82.27,-131.07,-214.03,-238.43,-233.55,-209.15,-174.99
-73.25,-83.01,-63.49,-29.33,-58.61,-73.25,-112.29,-200.13,-229.41,-229.41,-195.25,-161.09
-8.71,-23.35,-8.71,30.33,5.93,-18.47,-57.51,-145.35,-169.75,-169.75,-140.47,-96.55
64.44,40.04,54.68,108.36,83.96,44.92,15.64,-72.2,-91.72,-96.6,-38.04,-23.4
106.59,82.19,101.71,160.27,126.11,91.95,57.79,-39.81,-44.69,-49.57,-10.53,18.75
102.06,92.3,111.82,145.98,116.7,102.06,58.14,-44.34,-54.1,-54.1,-15.06,23.98
48.49,38.73,58.25,92.41,63.13,48.49,-5.19,-97.91,-107.67,-102.79,-68.63,-24.71
-34.79,-54.31,-25.03,33.53,-10.39,-39.67,-73.83,-171.43,-190.95,-176.31,-147.03,-93.35
-88.36,-107.88,-78.6,-20.04,-63.96,-93.24,-127.4,-225.0,-244.52,-234.76,-200.6,-151.8
-92.89,-117.29,-88.01,-19.69,-68.49,-102.65,-131.93,-229.53,-253.93,-244.17,-205.13,-156.33
-36.1,-65.38,-45.86,17.58,-11.7,-55.62,-84.9,-172.74,-206.9,-202.02,-153.22,-114.18
41.93,7.77,22.41,90.73,66.33,12.65,-6.87,-99.59,-128.87,-128.87,-75.19,-41.03
96.71,57.67,77.19,155.27,125.99,67.43,52.79,-39.93,-74.09,-59.45,-25.29,13.75
95.97,76.45,110.61,174.05,120.37,91.09,71.57,-21.15,-45.55,-45.55,3.25,32.53
56.62,27.34,61.5,139.58,85.9,41.98,32.22,-65.38,-80.02,-84.9,-50.74,-6.82
-9.71,-38.99,-9.71,63.49,19.57,-24.35,-38.99,-141.47,-156.11,-160.99,-121.95,-78.03
-69.25,-98.53,-74.13,-5.81,-44.85,-88.77,-113.17,-210.77,-225.41,-220.53,-191.25,-152.21
-91.9,-126.06,-101.66,-23.58,-62.62,-116.3,-135.82,-233.42,-257.82,-252.94,-199.26,-174.86
-65.33,-84.85,-55.57,2.99,-40.93,-70.21,-109.25,-201.97,-226.37,-226.37,-167.81,-148.29
8.1,-16.3,8.1,71.54,32.5,-6.54,-35.82,-128.54,-157.82,-157.82,-109.02,-74.86
76.65,42.49,66.89,144.97,105.93,52.25,27.85,-74.63,-94.15,-89.27,-25.83,-11.19
108.1,83.7,108.1,171.54,132.5,93.46,69.06,-33.42,-52.94,-67.58,-4.14,25.14
85.45,70.81,95.21,144.01,104.97,80.57,36.65,-60.95,-85.35,-95.11,-51.19,-2.39
16.15,6.39,35.67,79.59,35.67,21.03,-37.53,-130.25,-149.77,-159.53,-115.61,-71.69
-45.3,-59.94,-40.42,3.5,-30.66,-50.18,-103.86,-201.46,-216.1,-225.86,-186.82,-142.9
-89.53,-118.81,-94.41,-26.09,-65.13,-109.05,-143.21,-240.81,-250.57,-260.33,-216.41,-172.49
-75.63,-109.79,-85.39,-7.31,-46.35,-100.03,-129.31,-226.91,-246.43,-251.31,-207.39,-158.59
-15.97,-35.49,-11.09,42.59,3.55,-25.73,-74.53,-172.13,-191.65,-191.65,-152.61,-103.81
37.66,32.78,76.7,130.38,62.06,52.3,-1.38,-98.98,-118.5,-123.38,-79.46,-30.66
94.45,65.17,99.33,177.41,123.73,79.81,60.29,-37.31,-71.47,-71.47,-27.55,21.25
89.92,55.76,89.92,177.76,124.08,70.4,55.76,-41.84,-71.12,-66.24,-32.08,21.6
36.35,11.95,46.11,119.31,65.63,26.59,-2.69,-90.53,-124.69,-129.57,-90.53,-31.97
-32.29,-46.93,-17.65,36.03,-12.77,-32.29,-71.33,-168.93,-198.21,-203.09,-164.05,-105.49
-90.74,-100.5,-66.34,-17.54,-71.22,-85.86,-139.54,-227.38,-256.66,-261.54,-222.5,-163.94
-85.51,-105.03,-80.63,-26.95,-65.99,-95.27,-144.07,-241.67,-256.31,-261.19,-212.39,-168.47
-33.6,-62.88,-43.36,20.08,-9.2,-53.12,-82.4,-189.76,-204.4,-214.16,-160.48,-116.56
34.67,5.39,29.79,98.11,59.07,15.15,-9.25,-111.73,-131.25,-136.13,-87.33,-43.41
94.33,65.05,89.45,157.77,118.73,74.81,50.41,-52.07,-71.59,-76.47,-37.43,11.37
93.59,74.07,113.11,181.43,122.87,93.59,54.55,-43.05,-67.45,-67.45,-33.29,15.51
59.12,39.6,73.76,137.2,83.52,54.24,20.08,-77.52,-106.8,-111.68,-67.76,-18.96
-2.33,-31.61,-7.21,61.11,22.07,-21.85,-46.25,-143.85,-178.01,-178.01,-143.85,-85.29
-76.51,-110.67,-76.51,11.33,-42.35,-96.03,-110.67,-208.27,-237.55,-242.43,-193.63,-144.83
-99.16,-128.44,-94.28,-16.2,-69.88,-113.8,-143.08,-235.8,-260.2,-269.96,-226.04,-172.36
-57.95,-82.35,-57.95,5.49,-33.55,-72.59,-116.51,-204.35,-228.75,-238.51,-199.47,-140.91
5.72,-18.68,10.6,78.92,30.12,-4.04,-47.96,-140.68,-165.08,-169.96,-130.92,-67.48
74.27,49.87,79.15,147.47,98.67,64.51,25.47,-62.37,-81.89,-96.53,-37.97,5.95
95.96,76.44,115.48,183.8,125.24,95.96,56.92,-30.92,-60.2,-69.96,-1.64,32.52
78.19,44.03,78.19,166.03,112.35,58.67,39.15,-48.69,-82.85,-82.85,-19.41,19.63
23.53,-0.87,23.53,86.97,47.93,8.89,-30.15,-122.87,-157.03,-157.03,-103.35,-54.55
-52.56,-67.2,-37.92,15.76,-33.04,-52.56,-101.36,-198.96,-233.12,-238.0,-184.32,-130.64
-101.67,-116.31,-77.27,-13.83,-77.27,-96.79,-130.95,-228.55,-267.59,-267.59,-213.91,-160.23
-92.65,-107.29,-63.37,4.95,-63.37,-87.77,-121.93,-214.65,-248.81,-258.57,-204.89,-146.33
-28.11,-47.63,-8.59,59.73,1.17,-28.11,-67.15,-159.87,-189.15,-198.91,-145.23,-96.43
54.8,30.4,59.68,128.0,79.2,45.04,10.88,-81.84,-111.12,-120.88,-72.08,-18.4
101.83,82.31,111.59,170.15,126.23,96.95,48.15,-49.45,-73.85,-83.61,-34.81,18.87
97.3,87.54,116.82,160.74,116.82,102.18,48.5,-49.1,-68.62,-78.38,-39.34,19.22
29.09,38.85,82.77,112.05,43.73,58.37,-0.19,-102.67,-127.07,-131.95,-88.03,-34.35
-49.31,-68.83,-20.03,58.05,-15.15,-44.43,-68.83,-171.31,-200.59,-200.59,-151.79,-98.11
-83.36,-117.52,-88.24,-5.28,-54.08,-102.88,-127.28,-229.76,-259.04,-268.8,-200.48,-156.56
-83.01,-107.41,-83.01,-19.57,-58.61,-97.65,-126.93,-224.53,-263.57,-278.21,-214.77,-161.09
-45.74,-55.5,-21.34,27.46,-26.22,-40.86,-84.78,-187.26,-226.3,-236.06,-167.74,-128.7
27.41,22.53,56.69,100.61,46.93,37.17,-11.63,-104.35,-143.39,-153.15,-89.71,-55.55
82.19,57.79,96.83,174.91,111.47,77.31,52.91,-39.81,-78.85,-88.61,-34.93,8.99
91.21,52.17,96.09,198.57,130.25,71.69,76.57,-21.03,-50.31,-64.95,-1.51,32.65
61.62,22.58,56.74,149.46,95.78,37.22,32.34,-70.14,-99.42,-104.3,-50.62,-11.58
-14.47,-24.23,14.81,68.49,9.93,-4.71,-53.51,-146.23,-170.63,-175.51,-131.59,-87.67
-69.13,-74.01,-44.73,-5.69,-54.49,-59.37,-122.81,-215.53,-244.81,-244.81,-196.01,-152.09
-91.78,-130.82,-101.54,-13.7,-57.62,-116.18,-130.82,-228.42,-262.58,-257.7,-194.26,-160.1
-65.21,-118.89,-84.73,32.39,-21.29,-104.25,-89.61,-192.09,-226.25,-226.25,-157.93,-128.65
13.1,-30.82,-6.42,86.3,47.26,-21.06,-21.06,-123.54,-157.7,-157.7,-108.9,-64.98
81.65,47.49,71.89,149.97,110.93,57.25,42.61,-50.11,-94.03,-98.91,-40.35,-1.31
103.34,74.06,108.22,186.3,132.62,88.7,78.94,-18.66,-62.58,-67.46,-18.66,30.14
80.69,46.53,80.69,168.53,114.85,61.17,56.29,-41.31,-90.11,-94.99,-41.31,2.61
11.39,-22.77,16.27,108.99,45.55,-3.25,-3.25,-110.61,-149.65,-159.41,-110.61,-52.05
-54.94,-79.34,-45.18,28.02,-25.66,-64.7,-84.22,-186.7,-225.74,-230.62,-186.7,-128.14
-94.29,-118.69,-84.53,-11.33,-65.01,-104.05,-118.69,-226.05,-260.21,-269.97,-216.29,-162.61
-85.27,-104.79,-65.75,2.57,-55.99,-85.27,-109.67,-217.03,-251.19,-260.95,-197.51,-148.71
-25.61,-30.49,8.55,57.35,-6.09,-10.97,-54.89,-157.37,-196.41,-201.29,-132.97,-84.17
52.42,42.66,76.82,125.62,71.94,57.3,13.38,-93.98,-128.14,-133.02,-59.82,-15.9
99.45,79.93,114.09,177.53,123.85,94.57,65.29,-42.07,-76.23,-81.11,-17.67,36.01
94.92,75.4,109.56,173.0,119.32,90.04,60.76,-36.84,-85.64,-85.64,-27.08,31.48
36.47,12.07,51.11,129.19,65.75,31.59,12.07,-90.41,-134.33,-144.09,-80.65,-22.09
-32.17,-46.81,-12.65,45.91,-7.77,-32.17,-61.45,-163.93,-212.73,-222.49,-159.05,-100.49
-90.62,-95.5,-56.46,-7.66,-71.1,-75.98,-115.02,-217.5,-266.3,-271.18,-212.62,-158.94
-90.27,-80.51,-46.35,-26.83,-80.51,-65.87,-129.31,-231.79,-280.59,-280.59,-226.91,-178.11
-43.24,-57.88,-23.72,34.84,-18.84,-43.24,-72.52,-175.0,-218.92,-228.68,-160.36,-121.32
25.03,-18.89,20.15,127.51,64.07,0.63,5.51,-101.85,-145.77,-145.77,-72.57,-38.41
84.69,40.77,79.81,187.17,123.73,60.29,65.17,-37.31,-86.11,-86.11,-12.91,26.13
98.59,69.31,108.35,191.31,132.75,88.83,83.95,-23.41,-72.21,-67.33,-8.77,44.91
64.12,39.72,73.88,147.08,93.4,54.36,29.96,-67.64,-116.44,-116.44,-38.36,0.68
2.67,-21.73,2.67,66.11,27.07,-11.97,-36.37,-138.85,-192.53,-187.65,-114.45,-65.65
-66.63,-95.91,-66.63,6.57,-37.35,-81.27,-95.91,-198.39,-247.19,-252.07,-173.99,-130.07
-94.16,-118.56,-84.4,-11.2,-64.88,-103.92,-123.44,-221.04,-274.72,-274.72,-206.4,-157.6
-52.95,-82.23,-57.83,10.49,-28.55,-72.47,-87.11,-194.47,-233.51,-243.27,-179.83,-126.15
15.6,-8.8,15.6,79.04,40.0,0.96,-23.44,-125.92,-169.84,-179.6,-116.16,-67.36
79.27,49.99,79.27,152.47,108.55,64.63,45.11,-57.37,-101.29,-106.17,-42.73,10.95
110.72,86.32,115.6,183.92,135.12,100.96,76.56,-25.92,-69.84,-74.72,-11.28,42.4
83.19,58.79,92.95,166.15,112.47,73.43,44.15,-53.45,-102.25,-102.25,-38.81,14.87
23.65,-5.63,23.65,96.85,52.93,9.01,-10.51,-117.87,-166.67,-166.67,-98.35,-44.67
-52.44,-91.48,-57.32,35.4,-18.28,-76.84,-81.72,-174.44,-233.0,-237.88,-159.8,-106.12
-96.67,-125.95,-86.91,-3.95,-62.51,-106.43,-116.19,-213.79,-272.35,-272.35,-199.15,-145.47
-92.53,-107.17,-58.37,14.83,-63.25,-82.77,-97.41,-195.01,-253.57,-258.45,-185.25,-126.69
-23.11,-42.63,-3.59,64.73,6.17,-23.11,-52.39,-145.11,-198.79,-203.67,-135.35,-81.67
50.04,40.28,79.32,133.0,74.44,59.8,25.64,-67.08,-115.88,-125.64,-47.56,-8.52
106.83,82.43,111.71,180.03,131.23,97.07,72.67,-20.05,-73.73,-78.61,-15.17,33.63
97.42,53.5,87.66,190.14,136.46,68.14,77.9,-19.7,-63.62,-83.14,-5.06,43.74
43.85,9.69,43.85,131.69,78.01,24.33,24.33,-73.27,-117.19,-131.83,-53.75,-4.95
-29.67,-58.95,-24.79,53.29,-0.39,-44.31,-63.83,-156.55,-205.35,-215.11,-137.03,-88.23
-88.12,-107.64,-68.6,-0.28,-58.84,-88.12,-112.52,-210.12,-263.8,-268.68,-190.6,-141.8
-82.89,-107.29,-78.01,-9.69,-58.49,-92.65,-112.17,-214.65,-268.33,-273.21,-190.25,-151.21
-40.74,-70.02,-35.86,42.22,-11.46,-55.38,-65.14,-167.62,-226.18,-231.06,-138.34,-113.94
32.41,3.13,37.29,115.37,61.69,17.77,12.89,-89.59,-143.27,-157.91,-79.83,-45.67
92.07,67.67,101.83,175.03,121.35,82.31,72.55,-25.05,-83.61,-93.37,-5.53,18.87
105.97,76.69,110.85,188.93,135.25,91.33,86.45,-16.03,-64.83,-84.35,3.49,27.89
66.62,51.98,86.14,144.7,91.02,66.62,47.1,-60.26,-113.94,-118.82,-50.5,-11.46
-9.47,-24.11,14.93,78.37,14.93,-4.59,-24.11,-126.59,-170.51,-185.15,-111.95,-68.03
-69.01,-93.41,-59.25,13.95,-39.73,-78.77,-83.65,-191.01,-234.93,-249.57,-171.49,-132.45
-86.78,-125.82,-96.54,-8.7,-52.62,-111.18,-106.3,-213.66,-257.58,-272.22,-194.14,-150.22
-65.09,-104.13,-65.09,32.51,-26.05,-84.61,-79.73,-177.33,-235.89,-240.77,-162.69,-118.77
8.34,-16.06,18.1,91.3,37.62,-1.42,-16.06,-113.66,-172.22,-181.98,-103.9,-59.98
72.01,67.13,106.17,154.97,91.53,86.65,47.61,-49.99,-113.43,-113.43,-45.11,3.69
108.34,93.7,127.86,186.42,132.74,108.34,74.18,-18.54,-81.98,-91.74,-23.42,30.26
75.93,51.53,95.45,178.41,110.09,71.05,61.29,-26.55,-85.11,-99.75,-31.43,17.37
6.63,-42.17,6.63,128.63,55.43,-17.77,11.51,-76.33,-139.77,-149.53,-81.21,-27.53
-59.7,-88.98,-45.06,42.78,-25.54,-69.46,-74.34,-162.18,-220.74,-230.5,-162.18,-108.5
-94.17,-103.93,-64.89,-11.21,-69.77,-84.41,-118.57,-206.41,-260.09,-274.73,-201.53,-157.61
-85.15,-104.67,-60.75,12.45,-55.87,-85.15,-99.79,-197.39,-246.19,-255.95,-182.75,-138.83
-20.61,-54.77,-15.73,76.99,13.55,-35.25,-35.25,-132.85,-186.53,-191.41,-123.09,-69.41
52.54,18.38,57.42,150.14,86.7,37.9,47.66,-54.82,-108.5,-118.26,-45.06,3.74
99.57,65.41,104.45,197.17,133.73,84.93,89.81,-2.91,-61.47,-76.11,-2.91,50.77
95.04,70.64,109.68,187.76,124.32,90.16,80.4,-17.2,-85.52,-90.4,-12.32,41.36
36.59,12.19,56.11,139.07,70.75,31.71,31.71,-70.77,-129.33,-139.09,-41.49,-7.33
-22.29,-61.33,-32.05,55.79,11.87,-46.69,-46.69,-144.29,-202.85,-217.49,-119.89,-85.73
-75.86,-110.02,-80.74,2.22,-46.58,-95.38,-95.38,-192.98,-256.42,-266.18,-178.34,-139.3
-80.39,-109.67,-80.39,-7.19,-51.11,-95.03,-109.67,-207.27,-265.83,-270.71,-207.27,-148.71
-43.12,-57.76,-18.72,44.72,-18.72,-38.24,-52.88,-150.48,-204.16,-213.92,-145.6,-96.8
15.39,15.39,69.07,122.75,39.79,39.79,20.27,-82.21,-140.77,-145.65,-72.45,-33.41
89.69,65.29,104.33,182.41,118.97,84.81,79.93,-22.55,-85.99,-90.87,-12.79,26.25
113.35,84.07,113.35,186.55,142.63,98.71,98.71,-8.65,-72.09,-72.09,20.63,45.03
69.12,39.84,74.0,152.08,98.4,54.48,54.48,-43.12,-111.44,-111.44,-18.72,10.56
-11.85,-41.13,2.79,90.63,22.31,-21.61,-6.97,-109.45,-182.65,-187.53,-89.93,-55.77
-71.39,-110.43,-71.39,26.21,-32.35,-90.91,-76.27,-173.87,-242.19,-251.95,-154.35,-120.19
-108.68,-133.08,-79.4,13.32,-69.64,-108.68,-103.8,-201.4,-269.72,-274.6,-181.88,-152.6
-72.35,-86.99,-38.19,35.01,-43.07,-62.59,-72.35,-165.07,-233.39,-243.15,-160.19,-121.15
1.08,-13.56,30.36,98.68,30.36,5.96,-3.8,-101.4,-169.72,-184.36,-111.16,-57.48
59.87,25.71,79.39,186.75,103.79,50.11,74.51,-27.97,-86.53,-101.17,-13.33,11.07
105.96,57.16,96.2,208.44,149.88,76.68,105.96,8.36,-55.08,-64.84,23.0,57.16
78.43,34.51,78.43,190.67,122.35,54.03,83.31,-19.17,-82.61,-87.49,-4.53,44.27
18.89,-20.15,18.89,116.49,57.93,-0.63,14.01,-83.59,-147.03,-151.91,-83.59,-25.03
-52.32,-62.08,-23.04,30.64,-27.92,-42.56,-66.96,-164.56,-223.12,-237.76,-159.68,-106.0
-96.55,-91.67,-47.75,-8.71,-77.03,-72.15,-111.19,-203.91,-272.23,-281.99,-208.79,-155.11
-82.65,-97.29,-53.37,14.95,-53.37,-77.77,-82.65,-180.25,-248.57,-268.09,-190.01,-131.45
-18.11,-71.79,-32.75,89.25,25.81,-52.27,-18.11,-115.71,-179.15,-203.55,-125.47,-71.79
55.04,11.12,50.16,157.52,94.08,30.64,50.16,-42.56,-106.0,-130.4,-47.44,-3.52
111.83,77.67,106.95,189.91,141.11,92.31,97.19,4.47,-63.85,-78.49,-0.41,53.27
107.3,92.66,121.94,175.62,126.82,107.3,87.78,-9.82,-68.38,-87.9,-14.7,43.86
53.73,39.09,68.37,122.05,73.25,53.73,39.09,-63.39,-126.83,-136.59,-73.15,-9.71
-19.79,-24.67,4.61,43.65,-5.15,-10.03,-39.31,-132.03,-200.35,-205.23,-136.91,-73.47
-73.36,-78.24,-48.96,-9.92,-58.72,-63.6,-92.88,-175.84,-249.04,-249.04,-185.6,-122.16
-63.25,-77.89,-63.25,-24.21,-48.61,-73.01,-87.65,-170.61,-243.81,-243.81,-180.37,-126.69
-16.22,-40.62,-25.98,27.7,3.3,-35.74,-30.86,-123.58,-191.9,-196.78,-133.34,-74.78
56.93,32.53,47.17,100.85,76.45,37.41,42.29,-50.43,-113.87,-128.51,-65.07,-1.63
121.47,111.71,121.47,145.87,131.23,116.59,101.95,9.23,-54.21,-68.85,-5.41,48.27
130.49,120.73,135.37,164.65,140.25,125.61,115.85,28.01,-35.43,-54.95,13.37,71.93
91.14,76.5,91.14,130.18,105.78,81.38,66.74,-21.1,-79.66,-94.3,-16.22,37.46
15.05,5.29,24.81,58.97,29.69,15.05,-9.35,-102.07,-160.63,-180.15,-82.55,-43.51
-49.37,-59.13,-39.61,-5.45,-34.73,-49.37,-88.41,-181.13,-239.69,-254.33,-181.13,-112.81
-57.38,-76.9,-72.02,-37.86,-47.62,-76.9,-111.06,-203.78,-267.22,-276.98,-203.78,-135.46
-30.81,-55.21,-45.45,3.35,-16.17,-50.33,-64.97,-157.69,-226.01,-230.89,-162.57,-99.13
42.62,3.58,8.46,71.9,62.14,3.58,13.34,-79.38,-152.58,-162.34,-94.02,-35.46
125.81,67.25,57.49,135.57,150.21,62.37,106.29,13.57,-74.27,-84.03,-15.71,42.85
157.26,108.46,98.7,162.14,176.78,103.58,132.86,40.14,-42.82,-52.58,35.26,74.3
139.49,105.33,90.69,129.73,149.25,95.57,110.21,7.73,-75.23,-84.99,-6.91,51.65
60.43,55.55,55.55,65.31,60.43,55.55,50.67,-51.81,-125.01,-139.65,-42.05,-3.01
-20.54,3.86,13.62,-10.78,-30.3,8.74,-30.3,-127.9,-201.1,-205.98,-108.38,-69.34
-45.25,-40.37,-45.25,-55.01,-50.13,-45.25,-69.65,-162.37,-225.81,-235.57,-167.25,-103.81
-26.47,-31.35,-41.11,-41.11,-31.35,-36.23,-55.75,-143.59,-211.91,-216.79,-138.71,-89.91
33.19,38.07,28.31,13.67,23.43,33.19,-0.97,-88.81,-152.25,-157.13,-88.81,-35.13
101.46,135.62,130.74,77.06,81.94,130.74,72.18,-10.78,-79.1,-79.1,-10.78,38.02
148.49,187.53,182.65,119.21,124.09,182.65,128.97,41.13,-27.19,-27.19,26.49,99.69
139.08,183.0,183.0,119.56,114.68,183.0,139.08,46.36,-26.84,-26.84,26.84,100.04
90.39,119.67,114.79,65.99,70.87,114.79,105.03,17.19,-60.89,-70.65,-21.85,56.23
26.63,26.63,11.99,-2.65,16.87,16.87,46.15,-41.69,-119.77,-134.41,-80.73,-7.53
-12.3,-22.06,-51.34,-65.98,-22.06,-36.7,2.34,-90.38,-168.46,-187.98,-119.66,-61.1
-16.83,-31.47,-60.75,-65.63,-26.59,-46.11,2.69,-94.91,-177.87,-192.51,-119.31,-65.63
20.44,5.8,-13.72,-8.84,15.56,-3.96,39.96,-52.76,-130.84,-150.36,-72.28,-23.48
88.71,74.07,59.43,69.19,88.71,64.31,83.83,0.87,-72.33,-82.09,-4.01,49.67
148.37,119.09,104.45,133.73,153.25,109.33,109.33,31.25,-32.19,-37.07,31.25,109.33
162.27,128.11,113.47,152.51,172.03,118.35,108.59,35.39,-32.93,-32.93,45.15,118.35
118.04,88.76,79.0,113.16,127.8,83.88,54.6,-8.84,-72.28,-77.16,10.68,83.88
46.83,2.91,-6.85,51.71,61.47,-1.97,-26.37,-94.69,-158.13,-163.01,-65.41,2.91
-27.35,-56.63,-56.63,-12.71,-12.71,-56.63,-90.79,-163.99,-222.55,-232.31,-139.59,-71.27
-54.88,-84.16,-79.28,-30.48,-40.24,-84.16,-113.44,-191.52,-250.08,-259.84,-157.36,-93.92
-33.19,-72.23,-57.59,15.61,-8.79,-67.35,-72.23,-150.31,-208.87,-223.51,-125.91,-62.47
30.48,-13.44,6.08,93.92,59.76,-3.68,1.2,-81.76,-140.32,-159.84,-72.0,6.08
99.03,59.99,79.51,157.59,128.31,69.75,59.99,-32.73,-96.17,-110.81,-22.97,50.23
115.84,86.56,120.72,198.8,145.12,101.2,106.08,3.6,-64.72,-79.36,23.12,81.68
78.55,63.91,112.71,185.91,107.83,88.31,88.31,-19.05,-92.25,-106.89,-23.93,59.03
4.37,-5.39,53.17,126.37,38.53,23.89,23.89,-83.47,-166.43,-176.19,-102.99,-15.15
-61.96,-81.48,-27.8,55.16,-27.8,-57.08,-47.32,-154.68,-242.52,-257.16,-169.32,-96.12
-111.07,-140.35,-76.91,30.45,-67.15,-111.07,-86.67,-198.91,-276.99,-286.75,-194.03,-130.59
-97.17,-145.97,-82.53,54.11,-43.49,-116.69,-72.77,-180.13,-258.21,-272.85,-185.01,-111.81
-32.63,-81.43,-22.87,108.89,21.05,-52.15,-13.11,-115.59,-198.55,-213.19,-135.11,-52.15
35.64,-3.4,60.04,182.04,84.44,25.88,55.16,-52.2,-120.52,-140.04,-57.08,21.0
87.55,53.39,111.95,224.19,131.47,82.67,102.19,-5.17,-73.49,-97.89,-0.29,72.91
87.9,48.86,102.54,214.78,131.82,73.26,97.66,-9.7,-82.9,-97.54,-19.46,68.38
39.21,-19.35,29.45,166.09,92.89,5.05,48.97,-63.27,-136.47,-151.11,-73.03,9.93
-24.55,-78.23,-39.19,82.81,19.37,-58.71,-29.43,-141.67,-219.75,-229.51,-146.55,-58.71
-92.76,-126.92,-73.24,34.12,-48.84,-102.52,-87.88,-195.24,-283.08,-287.96,-209.88,-122.04
-121.69,-126.57,-48.49,39.35,-82.65,-87.53,-77.77,-190.01,-272.97,-277.85,-199.77,-111.93
-69.78,-74.66,-1.46,81.5,-30.74,-40.5,-35.62,-142.98,-225.94,-235.7,-157.62,-69.78
13.13,-11.27,52.17,154.65,57.05,18.01,27.77,-69.83,-152.79,-172.31,-69.83,-1.51
72.79,63.03,126.47,204.55,106.95,92.31,82.55,-19.93,-102.89,-117.53,-0.41,43.51
81.81,91.57,159.89,213.57,111.09,125.73,96.45,-10.91,-84.11,-103.63,3.73,52.53
32.7,32.7,110.78,188.86,71.74,71.74,61.98,-45.38,-118.58,-138.1,-45.38,22.94
-28.75,-62.91,5.41,127.41,20.05,-28.75,0.53,-106.83,-180.03,-194.67,-131.23,-38.51
-98.05,-127.33,-54.13,62.99,-49.25,-93.17,-54.13,-166.37,-239.57,-259.09,-190.77,-102.93
-115.82,-140.22,-71.9,35.46,-71.9,-106.06,-71.9,-184.14,-267.1,-286.62,-218.3,-120.7
-79.49,-89.25,-25.81,52.27,-45.33,-59.97,-35.57,-133.17,-235.65,-255.17,-196.61,-99.01
-20.7,-35.34,37.86,135.46,23.22,-1.18,67.14,-20.7,-137.82,-171.98,-132.94,-35.34
42.97,42.97,121.05,199.13,82.01,82.01,179.61,121.05,-25.35,-93.67,-83.91,8.81
59.78,103.7,196.42,225.7,84.18,147.62,259.86,240.34,69.54,-32.94,-71.98,15.86
37.13,124.97,217.69,178.65,37.13,168.89,281.13,300.65,120.09,-6.79,-99.51,-16.55
-12.65,119.11,197.19,80.07,-41.93,158.15,241.11,299.67,143.51,6.87,-139.53,-61.45
-64.34,111.34,169.9,-35.06,-122.9,140.62,169.9,291.9,135.74,-10.66,-181.46,-113.14
-79.29,106.15,140.31,-103.69,-157.37,120.79,150.07,315.99,169.59,28.07,-181.77,-123.21
-31.23,120.05,120.05,-104.43,-109.31,120.05,198.13,407.97,295.73,144.45,-114.19,-75.15
57.71,204.11,174.83,-74.05,-30.13,189.47,287.07,516.43,452.99,326.11,4.03,13.79
165.02,316.3,252.86,-35.06,57.66,282.14,389.5,613.98,638.38,540.78,140.62,140.62
241.33,382.85,290.13,-12.43,124.21,334.05,421.89,602.45,768.37,734.21,338.93,275.49
270.96,422.24,295.36,-56.0,129.44,358.8,334.4,427.12,788.24,871.2,495.44,392.96
246.67,471.15,314.99,-177.89,56.35,393.07,153.95,119.79,710.27,954.27,549.23,466.27
202.43,534.27,348.83,-334.37,-56.21,441.55,-119.65,-280.69,563.55,988.11,631.87,529.39
163.5,641.74,441.66,-475.78,-178.1,539.26,-353.78,-680.74,373.34,1022.38,773.5,641.74
154.09,778.73,583.53,-548.63,-255.83,681.13,-509.59,-1051.27,105.29,988.57,949.53,783.61
166.96,845.28,684.24,-491.84,-252.72,762.32,-521.12,-1262.88,-77.04,977.04,1099.04,928.24
220.59,850.11,708.59,-374.77,-164.93,776.91,-487.01,-1336.13,-189.33,952.59,1216.11,1055.07
236.33,768.25,670.65,-222.39,-80.87,719.45,-407.83,-1354.55,-261.43,904.89,1251.37,1095.21
211.19,528.39,469.83,-62.09,20.87,499.11,-286.57,-1340.65,-345.13,747.99,1157.91,1016.39
103.52,191.36,201.12,79.12,64.48,196.24,-160.0,-1297.04,-506.48,425.6,918.48,825.76
-50.65,-45.77,46.95,134.79,-6.73,-1.85,-118.97,-1285.29,-728.97,3.03,617.91,588.63
-173.63,-173.63,-22.35,128.93,-100.43,-100.43,-154.11,-1305.79,-959.31,-442.03,265.57,314.37
-245.08,-230.44,-30.36,150.2,-152.36,-132.84,-201.16,-1299.16,-1162.52,-855.08,-25.48,125.8
-267.31,-286.83,-33.07,249.97,-130.67,-159.95,-179.47,-1243.31,-1331.15,-1238.43,-242.91,-13.55
-223.16,-320.76,-42.6,381.96,-37.72,-184.12,-130.44,-1150.36,-1448.04,-1487.08,-350.04,-67.0
-144.85,-340.05,-71.65,489.55,84.51,-208.29,-96.05,-1018.37,-1330.69,-1374.61,-335.17,-66.77
-108.52,-367.16,-103.64,550.28,150.12,-235.4,-20.68,-855.16,-1167.48,-1201.64,-328.12,-89.0
-140.93,-394.69,-121.41,532.51,122.59,-258.05,-23.81,-765.57,-1058.37,-1092.53,-360.53,-160.45
-195.59,-444.47,-180.95,458.33,58.17,-312.71,-151.67,-786.07,-1034.95,-1049.59,-424.95,-224.87
-232.64,-471.76,-242.4,348.08,1.6,-359.52,-305.84,-788.96,-1008.56,-1018.32,-437.6,-266.8
-232.95,-472.07,-281.75,269.69,-18.23,-379.35,-374.47,-711.19,-921.03,-935.67,-442.79,-296.39
-199.53,-424.01,-253.21,254.31,-4.33,-341.05,-365.45,-609.45,-799.77,-819.29,-394.73,-272.73
-120.35,-335.07,-183.79,289.57,60.21,-261.87,-296.03,-476.59,-652.27,-681.55,-305.79,-193.55
-22.8,-232.64,-105.76,338.32,143.12,-169.2,-183.84,-340.0,-491.28,-535.2,-208.24,-110.64
29.11,-175.85,-53.85,375.59,190.15,-117.29,-68.49,-229.53,-361.29,-410.09,-146.57,-39.21
48.98,-155.98,-58.38,346.66,200.26,-107.18,-4.7,-160.86,-277.98,-336.54,-112.06,-24.22
10.05,-175.39,-92.43,268.69,141.81,-136.35,-19.23,-146.11,-258.35,-316.91,-136.35,-53.39
-39.07,-209.87,-151.31,165.89,73.17,-180.59,-39.07,-136.67,-263.55,-331.87,-185.47,-107.39
-87.76,-239.04,-185.36,97.68,14.72,-214.64,-48.72,-131.68,-268.32,-326.88,-209.76,-141.44
-92.29,-214.29,-160.61,78.51,-4.45,-189.89,-43.49,-121.57,-233.81,-282.61,-180.13,-116.69
-25.74,-108.7,-74.54,86.5,32.82,-94.06,-1.34,-50.14,-152.62,-201.42,-123.34,-55.02
47.41,-1.39,32.77,140.13,86.45,13.25,71.81,47.41,-45.31,-98.99,-35.55,32.77
107.07,53.39,87.55,204.67,150.99,68.03,150.99,131.47,38.75,-19.81,33.87,102.19
116.09,86.81,125.85,208.81,150.25,106.33,179.53,160.01,67.29,3.85,42.89,111.21
76.74,57.22,96.26,164.58,106.02,76.74,149.94,135.3,42.58,-25.74,-1.34,62.1
10.41,-4.23,29.93,88.49,34.81,10.41,83.61,64.09,-18.87,-82.31,-67.67,-13.99
-54.01,-88.17,-54.01,33.83,-19.85,-73.53,38.71,19.19,-63.77,-122.33,-117.45,-68.65
-81.54,-110.82,-71.78,11.18,-47.38,-91.3,11.18,1.42,-81.54,-140.1,-130.34,-96.18
-50.09,-64.73,-25.69,37.75,-25.69,-45.21,42.63,32.87,-54.97,-103.77,-103.77,-59.85
18.46,13.58,52.62,101.42,37.98,33.1,111.18,111.18,3.82,-35.22,-40.1,8.7
82.13,77.25,121.17,174.85,106.53,96.77,179.73,179.73,72.37,33.33,33.33,77.25
128.22,103.82,133.1,201.42,152.62,118.46,216.06,220.94,113.58,74.54,89.18,108.7
100.69,76.29,110.45,183.65,129.97,90.93,203.17,212.93,105.57,56.77,61.65,90.93
46.03,21.63,46.03,109.47,70.43,31.39,143.63,148.51,46.03,-7.65,-12.53,31.39
-30.06,-44.7,-15.42,38.26,-10.54,-30.06,67.54,82.18,-5.66,-69.1,-98.38,-49.58
-69.41,-88.93,-59.65,-1.09,-45.01,-74.29,33.07,47.71,-35.25,-98.69,-123.09,-88.93
-50.63,-60.39,-35.99,3.05,-35.99,-50.63,56.73,61.61,-11.59,-75.03,-114.07,-65.27
9.03,-5.61,18.79,67.59,28.55,4.15,106.63,126.15,52.95,-10.49,-44.65,-5.61
82.18,67.54,91.94,140.74,101.7,77.3,179.78,199.3,126.1,72.42,28.5,72.42
124.33,129.21,158.49,182.89,134.09,143.85,221.93,246.33,163.37,114.57,85.29,119.45
114.92,119.8,153.96,183.24,129.56,134.44,222.28,246.68,153.96,105.16,85.64,114.92
80.87,61.35,75.99,119.91,95.51,66.23,173.59,197.99,110.15,56.47,32.07,66.23
12.23,-17.05,-7.29,46.39,31.75,-12.17,109.83,134.23,46.39,-17.05,-41.45,-7.29
-41.34,-75.5,-65.74,-2.3,-21.82,-70.62,56.26,75.78,-2.3,-70.62,-109.66,-65.74
-50.75,-70.27,-55.63,-11.71,-36.11,-65.39,56.61,81.01,7.81,-60.51,-109.31,-65.39
-28.12,-23.24,15.8,49.96,-13.48,-3.72,113.4,137.8,79.24,6.04,-47.64,-8.6
59.67,54.79,79.19,113.35,74.31,64.55,181.67,206.07,152.39,74.31,35.27,59.67
124.21,129.09,148.61,163.25,129.09,138.85,236.45,265.73,212.05,143.73,94.93,124.21
133.23,133.23,157.63,182.03,142.99,142.99,250.35,279.63,230.83,162.51,103.95,138.11
98.76,108.52,128.04,132.92,103.64,118.28,211.0,250.04,186.6,123.16,74.36,103.64
27.55,37.31,56.83,61.71,32.43,47.07,139.79,178.83,105.63,42.19,17.79,27.55
-31.99,-41.75,-27.11,2.17,-22.23,-36.87,80.25,119.29,50.97,-12.47,-66.15,-41.75
-54.64,-64.4,-49.76,-20.48,-44.88,-59.52,67.36,106.4,38.08,-30.24,-98.56,-59.52
-23.19,-37.83,-23.19,15.85,-8.55,-32.95,98.81,142.73,79.29,1.21,-62.23,-28.07
40.48,35.6,55.12,84.4,50.24,45.36,167.36,216.16,157.6,79.52,6.32,45.36
113.91,118.79,133.43,143.19,118.79,123.67,235.91,284.71,235.91,157.83,69.99,118.79
145.36,150.24,164.88,174.64,150.24,155.12,267.36,316.16,272.24,194.16,106.32,150.24
127.59,142.23,151.99,142.23,122.71,147.11,239.83,298.39,254.47,186.15,112.95,137.35
63.17,63.17,72.93,82.69,68.05,68.05,180.29,238.85,194.93,131.49,53.41,77.81
-8.04,-12.92,-3.16,16.36,-3.16,-8.04,113.96,172.52,118.84,65.16,-17.8,11.48
-42.51,-42.51,-37.63,-32.75,-42.51,-42.51,79.49,142.93,79.49,25.81,-47.39,-22.99
-23.73,-33.49,-33.49,-18.85,-18.85,-33.49,88.51,161.71,93.39,44.59,-38.37,-13.97
35.93,26.17,26.17,40.81,40.81,26.17,153.05,226.25,162.81,104.25,26.17,50.57
109.08,99.32,99.32,113.96,113.96,99.32,226.2,299.4,250.6,182.28,99.32,123.72
151.23,146.35,151.23,165.87,156.11,146.35,268.35,351.31,302.51,243.95,136.59,170.75
146.7,151.58,156.46,156.46,146.7,151.58,273.58,351.66,317.5,254.06,141.82,171.1
93.13,102.89,107.77,98.01,88.25,102.89,224.89,302.97,273.69,215.13,98.01,122.41
24.49,39.13,39.13,19.61,14.73,39.13,141.61,234.33,200.17,146.49,29.37,48.89
-24.2,-4.68,-9.56,-43.72,-38.84,-9.56,88.04,185.64,151.48,102.68,-14.44,0.2
-28.73,-9.21,-14.09,-48.25,-43.37,-14.09,83.51,185.99,156.71,103.03,0.55,5.43
28.06,37.82,23.18,-6.1,13.42,28.06,135.42,242.78,208.62,150.06,37.82,57.34
110.97,120.73,96.33,57.29,91.45,106.09,203.69,325.69,281.77,228.09,110.97,130.49
165.75,165.75,146.23,126.71,155.99,155.99,273.11,390.23,351.19,292.63,175.51,195.03
184.53,174.77,150.37,140.61,174.77,160.13,291.89,413.89,384.61,316.29,194.29,208.93
145.18,140.3,115.9,101.26,135.42,125.66,247.66,374.54,364.78,286.7,150.06,169.58
69.09,78.85,59.33,25.17,54.45,69.09,176.45,308.21,303.33,230.13,88.61,93.49
14.43,24.19,-5.09,-49.01,-5.09,9.55,112.03,248.67,248.67,175.47,29.07,38.83
-17.98,16.18,-3.34,-71.66,-47.26,6.42,84.5,235.78,230.9,167.46,16.18,21.06
23.23,47.63,18.35,-45.09,-6.05,32.99,115.95,272.11,272.11,213.55,67.15,62.27
101.54,116.18,77.14,18.58,72.26,96.66,189.38,350.42,355.3,286.98,145.46,140.58
170.09,194.49,155.45,82.25,135.93,174.97,253.05,428.73,428.73,360.41,214.01,209.13
221.06,230.82,172.26,99.06,186.9,201.54,289.38,474.82,469.94,396.74,245.46,240.58
208.17,198.41,130.09,76.41,178.89,164.25,271.61,461.93,461.93,383.85,232.57,227.69
124.23,99.83,51.03,41.27,109.59,75.43,226.71,426.79,436.55,348.71,173.03,182.79
43.26,28.62,-10.42,-25.06,28.62,9.1,155.5,360.46,384.86,287.26,101.82,106.7
8.79,8.79,-35.13,-79.05,-15.61,-15.61,116.15,325.99,360.15,262.55,67.35,62.47
37.33,37.33,-21.23,-79.79,8.05,8.05,134.93,349.65,383.81,291.09,95.89,81.25
101.87,96.99,33.55,-20.13,72.59,62.83,189.71,419.07,453.23,375.15,165.31,150.67
175.02,189.66,126.22,43.26,135.98,155.5,253.1,492.22,536.14,453.18,228.7,223.82
222.05,256.21,192.77,80.53,173.25,222.05,305.01,553.89,592.93,524.61,305.01,280.61
222.4,241.92,173.6,76.0,178.48,207.76,305.36,568.88,612.8,529.84,310.24,285.84
173.71,198.11,124.91,17.55,124.91,159.07,256.67,534.83,573.87,495.79,261.55,242.03
105.07,129.47,51.39,-60.85,51.39,90.43,192.91,480.83,524.75,436.91,217.31,183.15
51.5,75.9,-2.18,-114.42,-2.18,36.86,139.34,441.9,495.58,397.98,158.86,134.46
56.73,71.37,-16.47,-123.83,3.05,27.45,134.81,452.01,520.33,417.85,164.09,134.81
118.4,123.28,20.8,-86.56,64.72,69.6,181.84,508.8,591.76,499.04,220.88,191.6
196.43,211.07,103.71,-23.17,132.99,157.39,250.11,586.83,674.67,586.83,313.55,264.75
265.85,290.25,173.13,21.85,192.65,231.69,304.89,666.01,753.85,670.89,387.85,334.17
279.75,313.91,196.79,30.87,201.67,255.35,318.79,689.67,782.39,704.31,401.75,352.95
240.4,274.56,157.44,-8.48,162.32,216.0,279.44,669.84,757.68,694.24,372.16,333.12
178.95,213.11,86.23,-89.45,95.99,149.67,213.11,623.03,705.99,647.43,320.47,281.43
124.29,148.69,12.05,-158.75,41.33,80.37,148.69,583.01,665.97,607.41,270.69,226.77
111.4,126.04,-20.36,-186.28,28.44,52.84,140.68,579.88,672.6,614.04,277.32,223.64
147.73,167.25,15.97,-164.59,59.89,89.17,172.13,625.97,728.45,674.77,323.41,264.85
226.04,250.44,89.4,-105.8,133.32,167.48,240.68,714.04,840.92,772.6,411.48,348.04
309.23,343.39,167.71,-56.77,201.87,255.55,304.35,797.23,933.87,875.31,504.43,426.35
340.68,384.6,208.92,-30.2,228.44,296.76,330.92,838.44,984.84,926.28,540.76,462.68
318.03,376.59,200.91,-62.61,200.91,288.75,313.15,835.31,991.47,942.67,552.27,464.43
258.49,326.81,146.25,-136.79,131.61,234.09,238.97,785.53,951.45,912.41,512.25,419.53
192.16,260.48,75.04,-212.88,65.28,167.76,162.88,733.84,899.76,870.48,460.56,362.96
172.33,230.89,25.93,-266.87,40.57,128.41,123.53,718.89,889.69,865.29,445.61,343.13
205.75,244.79,20.31,-262.73,73.99,132.55,142.31,747.43,927.99,908.47,479.03,371.67
265.41,314.21,89.73,-207.95,128.77,201.97,197.09,826.61,1007.17,997.41,558.21,445.97
348.32,416.64,182.4,-154.32,197.04,299.52,250.72,904.64,1109.6,1094.96,646.0,533.76
405.11,492.95,248.95,-126.81,239.19,370.95,292.87,961.43,1185.91,1166.39,712.55,595.43
410.34,498.18,244.42,-141.1,239.54,371.3,288.34,971.54,1210.66,1200.9,742.18,610.42
366.53,439.73,176.21,-194.67,195.73,307.97,239.65,937.49,1196.13,1186.37,717.89,581.25
297.89,375.97,107.57,-277.95,122.21,239.33,156.37,863.97,1132.37,1137.25,663.89,517.49
254.08,346.8,68.64,-346.16,68.64,205.28,102.8,825.04,1098.32,1112.96,629.84,488.32
249.55,361.79,83.63,-360.45,54.35,220.27,83.63,820.51,1098.67,1127.95,644.83,498.43
306.34,413.7,125.78,-323.18,106.26,267.3,120.9,872.42,1160.34,1189.62,716.26,560.1
399.01,506.37,198.93,-269.55,189.17,350.21,189.17,955.33,1248.13,1277.41,804.05,643.01
458.67,570.91,263.47,-209.89,248.83,414.75,248.83,1014.99,1322.43,1356.59,873.47,722.19
482.33,589.69,272.49,-205.75,267.61,428.65,252.97,1024.01,1350.97,1385.13,897.13,755.61
447.86,564.98,242.9,-254.86,228.26,403.94,208.74,989.54,1326.26,1370.18,882.18,721.14
366.89,498.65,186.33,-321.19,142.41,342.49,132.65,918.33,1269.69,1313.61,835.37,659.69
312.23,458.63,136.55,-405.13,77.99,297.59,63.35,844.15,1215.03,1263.83,766.07,605.03
289.58,440.86,118.78,-427.78,50.46,279.82,21.18,811.74,1182.62,1241.18,767.82,582.38
321.03,482.07,159.99,-401.21,77.03,321.03,47.75,828.55,1209.19,1277.51,799.27,623.59
399.34,565.26,233.42,-347.3,150.46,399.34,111.42,882.46,1267.98,1350.94,872.7,697.02
463.01,619.17,292.21,-268.99,219.01,453.25,175.09,946.13,1331.65,1409.73,946.13,770.45
494.46,655.5,328.54,-237.54,250.46,489.58,201.66,962.94,1353.34,1431.42,987.34,801.9
466.93,632.85,310.77,-260.19,222.93,471.81,174.13,920.77,1320.93,1399.01,954.93,779.25
397.63,563.55,246.35,-319.73,153.63,402.51,99.95,836.83,1241.87,1324.83,875.87,709.95
331.3,497.22,175.14,-395.82,87.3,336.18,23.86,736.34,1151.14,1238.98,794.9,628.98
282.19,462.75,150.43,-430.29,33.31,306.59,-20.37,672.59,1092.27,1180.11,740.91,579.87
286.33,486.41,183.85,-416.39,32.57,335.13,-16.23,652.33,1076.89,1169.61,740.17,584.01
345.99,546.07,243.51,-356.73,92.23,394.79,38.55,692.47,1112.15,1199.99,785.19,629.03
399.62,614.34,331.3,-273.82,150.74,472.82,106.82,736.34,1146.26,1238.98,833.94,682.66
436.89,641.85,368.57,-212.15,197.77,505.21,158.73,754.09,1164.01,1246.97,856.57,710.17
422.6,608.04,344.52,-197.16,198.12,476.28,163.96,730.04,1120.44,1208.28,837.4,700.76
344.63,530.07,290.95,-226.33,129.91,408.07,105.51,652.07,1027.83,1105.91,759.43,617.91
261.35,451.67,222.31,-290.09,51.51,334.55,27.11,544.39,915.27,978.71,646.87,524.87
188.26,383.46,173.62,-329.02,-16.7,276.1,-21.58,456.66,817.78,871.46,559.14,437.14
173.97,364.29,164.21,-318.91,-21.23,261.81,-26.11,417.97,769.33,818.13,510.69,398.45
206.36,401.56,216.12,-262.12,16.04,308.84,20.92,425.96,772.44,811.48,547.96,421.08
259.99,460.07,294.15,-169.45,74.55,377.11,79.43,464.95,787.03,835.83,577.19,460.07
309.89,505.09,348.93,-100.03,134.21,427.01,143.97,490.45,802.77,836.93,583.17,490.45
314.03,509.23,362.83,-76.37,143.23,436.03,157.87,479.95,767.87,797.15,572.67,475.07
260.04,465.0,333.24,-105.96,89.24,396.68,113.64,406.44,660.2,699.24,489.4,406.44
179.07,340.11,218.11,-143.01,37.55,276.67,66.83,325.47,549.95,588.99,423.07,330.35
95.13,236.65,134.17,-178.15,-26.87,182.97,2.41,236.65,441.61,475.77,329.37,246.41
57.84,204.24,116.4,-191.04,-59.28,160.32,-25.12,184.72,375.04,394.56,243.28,189.6
79.53,211.29,133.21,-140.07,-27.83,172.25,11.21,191.77,367.45,372.33,250.33,201.53
133.44,270.08,206.64,-61.76,30.96,235.92,74.88,231.04,396.96,392.08,289.6,240.8
201.99,333.75,270.31,11.67,104.39,299.59,143.43,260.55,421.59,421.59,323.99,289.83
218.8,340.8,292.0,62.64,130.96,316.4,174.88,277.36,423.76,423.76,345.68,306.64
176.63,303.51,274.23,54.63,98.55,288.87,152.23,235.19,366.95,362.07,283.99,264.47
107.33,229.33,204.93,-0.03,34.13,214.69,87.81,151.25,258.61,263.49,200.05,180.53
31.24,138.6,119.08,-61.48,-32.2,128.84,11.72,65.4,143.48,153.24,128.84,94.68
-8.11,79.73,60.21,-91.07,-61.79,69.97,-22.75,16.29,74.85,79.73,65.09,35.81
5.79,83.87,64.35,-72.29,-43.01,74.11,-3.97,20.43,64.35,69.23,64.35,39.95
55.69,128.89,119.13,2.01,11.77,124.01,50.81,60.57,99.61,94.73,80.09,80.09
109.32,192.28,202.04,89.8,70.28,197.16,133.72,128.84,158.12,143.48,148.36,153.24
156.35,229.55,239.31,141.71,122.19,234.43,185.63,166.11,195.39,175.87,180.75,190.51
146.94,200.62,215.26,151.82,127.42,205.5,181.1,146.94,171.34,151.82,166.46,176.22
98.25,147.05,156.81,93.37,78.73,151.93,122.65,73.85,93.37,83.61,98.25,112.89
10.09,54.01,78.41,39.37,0.33,63.77,44.25,-9.43,5.21,-4.55,34.49,29.61
-53.24,-9.32,24.84,-4.44,-58.12,5.32,-9.32,-77.64,-67.88,-72.76,-33.72,-28.84
-57.77,-4.09,30.07,-13.85,-67.53,10.55,-8.97,-87.05,-91.93,-91.93,-57.77,-38.25
-10.74,38.06,72.22,33.18,-20.5,52.7,33.18,-44.9,-59.54,-64.42,-20.5,3.9
67.29,106.33,135.61,106.33,62.41,120.97,111.21,33.13,8.73,3.85,52.65,77.05
126.95,156.23,185.51,170.87,126.95,170.87,170.87,87.91,53.75,48.87,102.55,126.95
135.97,160.37,194.53,194.53,140.85,175.01,184.77,96.93,62.77,53.01,106.69,131.09
101.5,111.26,140.54,155.18,111.26,125.9,155.18,52.7,23.42,8.78,72.22,86.86
20.53,35.17,74.21,93.73,30.29,54.69,83.97,-23.39,-52.67,-62.43,-3.87,5.89
-48.77,-39.01,4.91,34.19,-34.13,-19.49,19.55,-92.69,-121.97,-126.85,-82.93,-58.53
-71.42,-61.66,-17.74,11.54,-56.78,-42.14,-3.1,-115.34,-149.5,-154.38,-110.46,-81.18
-44.85,-30.21,18.59,47.87,-30.21,-5.81,23.47,-88.77,-127.81,-132.69,-74.13,-49.73
28.58,43.22,87.14,111.54,43.22,62.74,92.02,-15.34,-59.26,-64.14,-5.58,23.7
97.13,106.89,150.81,180.09,111.77,126.41,160.57,53.21,4.41,-0.47,62.97,92.25
123.7,133.46,182.26,216.42,143.22,157.86,187.14,84.66,35.86,26.1,99.3,118.82
105.93,115.69,159.61,188.89,120.57,135.21,164.49,62.01,3.45,-6.31,71.77,86.41
41.51,51.27,95.19,124.47,56.15,70.79,100.07,-2.41,-56.09,-75.61,31.75,12.23
-19.94,-19.94,14.22,48.38,-5.3,-5.3,28.86,-73.62,-117.54,-146.82,-44.34,-58.98
-59.29,-64.17,-30.01,13.91,-39.77,-49.53,4.15,-98.33,-142.25,-166.65,-108.09,-88.57
-50.27,-55.15,-16.11,32.69,-30.75,-35.63,13.17,-94.19,-128.35,-157.63,-99.07,-89.31
9.39,19.15,58.19,82.59,24.03,38.67,67.95,-39.41,-73.57,-88.21,-58.93,-29.65
77.66,92.3,136.22,160.62,92.3,111.82,145.98,38.62,-5.3,-15.06,19.1,58.14
124.69,134.45,178.37,207.65,139.33,153.97,188.13,90.53,41.73,31.97,75.89,110.05
120.16,120.16,164.08,208.0,139.68,139.68,188.48,95.76,51.84,42.08,86.0,120.16
61.71,71.47,120.27,154.43,81.23,95.87,130.03,47.07,-6.61,-16.37,27.55,61.71
-11.81,-6.93,41.87,85.79,7.71,17.47,66.27,-21.57,-75.25,-85.01,-45.97,-11.81
-65.38,-60.5,-11.7,32.22,-45.86,-36.1,12.7,-65.38,-119.06,-133.7,-94.66,-65.38
-69.91,-65.03,-16.23,27.69,-50.39,-40.63,3.29,-69.91,-118.71,-133.35,-108.95,-74.79
-13.12,-13.12,25.92,64.96,6.4,6.4,55.2,-22.88,-61.92,-81.44,-52.16,-27.76
60.03,50.27,89.31,142.99,84.43,69.79,128.35,50.27,16.11,-8.29,20.99,40.51
124.57,109.93,144.09,202.65,148.97,124.57,183.13,109.93,75.77,66.01,85.53,100.17
143.35,143.35,172.63,201.91,157.99,157.99,192.15,123.83,84.79,79.91,89.67,114.07
104.0,104.0,133.28,162.56,118.64,118.64,147.92,84.48,45.44,35.68,55.2,74.72
23.03,27.91,66.95,101.11,37.67,47.43,81.59,23.03,-25.77,-30.65,-20.89,8.39
-51.15,-46.27,2.53,46.45,-31.63,-21.87,31.81,-26.75,-80.43,-85.31,-75.55,-46.27
-68.92,-73.8,-29.88,23.8,-44.52,-54.28,-0.6,-49.4,-103.08,-112.84,-98.2,-68.92
-32.59,-37.47,1.57,50.37,-13.07,-17.95,25.97,-22.83,-71.63,-81.39,-71.63,-42.35
31.08,31.08,75.0,118.92,50.6,50.6,99.4,45.72,6.68,-7.96,1.8,31.08
104.51,109.39,148.43,182.59,119.15,128.91,163.07,109.39,80.11,65.47,80.11,99.63
140.84,145.72,179.88,209.16,155.48,160.36,204.28,145.72,121.32,106.68,131.08,135.96
118.19,103.55,137.71,196.27,142.59,118.19,176.75,118.19,103.55,98.67,98.67,113.31
48.89,53.77,92.81,126.97,63.53,73.29,112.33,53.77,29.37,34.25,39.13,53.77
-17.44,-7.68,26.48,46.0,-7.68,6.96,36.24,-17.44,-46.72,-41.84,-32.08,-22.32
-56.79,-47.03,-12.87,6.65,-47.03,-32.39,-7.99,-56.79,-95.83,-90.95,-81.19,-66.55
-38.01,-38.01,-8.73,20.55,-23.37,-23.37,10.79,-33.13,-77.05,-77.05,-67.29,-47.77
16.77,11.89,46.05,89.97,36.29,26.53,70.45,21.65,-17.39,-22.27,2.13,11.89
94.8,80.16,109.44,163.12,114.32,94.8,143.6,94.8,60.64,50.88,75.28,80.16
146.71,122.31,146.71,210.15,171.11,132.07,195.51,151.59,117.43,107.67,112.55,132.07
132.42,127.54,161.7,205.62,151.94,142.18,186.1,137.3,108.02,103.14,103.14,122.66
73.97,93.49,132.53,142.29,83.73,113.01,127.65,73.97,49.57,44.69,59.33,69.09
15.09,24.85,49.25,59.01,19.97,34.61,54.13,5.33,-19.07,-19.07,-23.95,-4.43
-48.24,-33.6,0.56,15.2,-38.48,-18.96,0.56,-48.24,-77.52,-72.64,-72.64,-53.12
-47.89,-38.13,-8.85,5.79,-38.13,-23.49,0.91,-47.89,-82.05,-72.29,-67.41,-52.77
-0.86,8.9,38.18,52.82,8.9,23.54,43.06,-0.86,-39.9,-35.02,-20.38,-5.74
67.41,72.29,106.45,135.73,82.05,86.93,125.97,77.17,38.13,38.13,52.77,67.41
127.07,131.95,166.11,195.39,141.71,146.59,175.87,131.95,92.91,88.03,112.43,131.95
136.09,136.09,175.13,214.17,155.61,155.61,189.77,145.85,111.69,106.81,131.21,140.97
111.38,116.26,140.66,160.18,121.14,126.02,140.66,96.74,67.46,57.7,72.34,91.86
40.17,64.57,88.97,79.21,40.17,74.33,69.45,20.65,1.13,-13.51,-8.63,15.77
-29.13,-14.49,14.79,24.55,-24.25,0.15,5.03,-48.65,-58.41,-77.93,-58.41,-43.77
-46.9,-71.3,-46.9,16.54,-22.5,-61.54,-7.86,-61.54,-66.42,-81.06,-71.3,-46.9
-20.33,-34.97,-5.69,47.99,-0.81,-20.33,13.83,-39.85,-44.73,-54.49,-30.09,-20.33
48.22,48.22,77.5,106.78,62.86,62.86,72.62,28.7,9.18,4.3,33.58,43.34
121.65,126.53,150.93,170.45,131.41,136.29,150.93,97.25,77.73,63.09,92.37,121.65
148.22,157.98,187.26,201.9,157.98,172.62,172.62,128.7,104.3,94.54,123.82,148.22
135.33,135.33,154.85,174.37,145.09,145.09,154.85,101.17,76.77,67.01,96.29,120.69
75.79,61.15,75.79,114.83,90.43,66.03,100.19,41.63,17.23,-7.17,26.99,61.15
-5.18,-19.82,4.58,53.38,14.34,-10.06,28.98,-29.58,-53.98,-73.5,-44.22,-10.06
-49.41,-54.29,-25.01,14.03,-34.77,-39.65,-15.25,-68.93,-88.45,-112.85,-83.57,-44.53
-40.39,-45.27,-11.11,32.81,-20.87,-30.63,-11.11,-69.67,-79.43,-98.95,-74.55,-40.39
19.27,24.15,58.31,87.59,33.91,38.79,48.55,-14.89,-24.65,-44.17,-14.89,19.27
97.3,102.18,131.46,155.86,107.06,116.82,121.7,58.26,33.86,33.86,53.38,92.42
144.33,144.33,173.61,202.89,158.97,158.97,158.97,100.41,71.13,71.13,105.29,134.57
154.44,144.68,159.32,188.6,164.2,149.56,154.44,95.88,66.6,61.72,105.64,134.92
91.11,86.23,110.63,144.79,105.75,95.99,105.75,47.19,13.03,8.15,42.31,81.35
12.71,7.83,37.11,76.15,27.35,22.47,22.47,-31.21,-65.37,-75.13,-31.21,7.83
-50.62,-35.98,3.06,22.58,-40.86,-16.46,-26.22,-79.9,-118.94,-128.7,-55.5,-45.74
-50.27,-40.51,-6.35,13.17,-40.51,-25.87,-35.63,-89.31,-123.47,-138.11,-74.67,-55.15
-3.24,-3.24,30.92,65.08,11.4,11.4,16.28,-47.16,-71.56,-86.2,-47.16,-13.0
69.91,60.15,94.31,143.11,89.43,74.79,89.43,21.11,-3.29,-13.05,30.87,50.39
129.57,114.93,149.09,207.65,153.97,129.57,144.21,80.77,56.37,46.61,85.65,114.93
133.71,143.47,187.39,216.67,148.35,162.99,162.99,89.79,60.51,60.51,114.19,128.83
99.24,113.88,152.92,172.44,109.0,133.4,113.88,40.68,11.4,16.28,89.48,84.6
28.03,32.91,71.95,106.11,42.67,52.43,42.67,-30.53,-69.57,-64.69,8.51,13.39
-36.39,-36.39,2.65,41.69,-16.87,-16.87,-16.87,-85.19,-129.11,-124.23,-60.79,-46.15
-59.04,-73.68,-34.64,28.8,-34.64,-54.16,-39.52,-107.84,-156.64,-156.64,-83.44,-68.8
-22.71,-42.23,-8.07,55.37,1.69,-27.59,-3.19,-76.39,-115.43,-125.19,-61.75,-37.35
55.6,36.08,60.48,114.16,75.12,45.84,70.24,-17.6,-46.88,-56.64,16.56,26.32
114.39,104.63,138.79,187.59,133.91,119.27,129.03,41.19,16.79,11.91,80.23,99.75
150.72,140.96,170.24,214.16,170.24,155.6,165.36,72.64,48.24,48.24,121.44,126.32
128.07,118.31,147.59,191.51,147.59,132.95,137.83,40.23,20.71,15.83,103.67,98.79
53.89,49.01,88.05,136.85,73.41,68.53,73.41,-19.31,-48.59,-43.71,14.85,44.13
-27.08,-22.2,26.6,70.52,-7.56,2.2,7.08,-90.52,-119.8,-119.8,-56.36,-27.08
-61.55,-71.31,-27.39,31.17,-37.15,-51.79,-32.27,-124.99,-164.03,-159.15,-95.71,-66.43
-47.65,-52.53,-8.61,45.07,-23.25,-33.01,-28.13,-115.97,-159.89,-155.01,-86.69,-62.29
16.89,7.13,46.17,99.85,41.29,26.65,31.53,-56.31,-105.11,-95.35,-17.27,-7.51
85.16,80.28,124.2,177.88,109.56,99.8,104.68,16.84,-22.2,-27.08,55.88,55.88
132.19,137.07,180.99,220.03,151.71,156.59,151.71,63.87,24.83,24.83,102.91,107.79
127.66,122.78,166.7,220.38,152.06,142.3,152.06,59.34,30.06,30.06,93.5,103.26
69.21,59.45,108.25,171.69,98.49,83.85,93.61,0.89,-23.51,-23.51,59.45,54.57
10.33,5.45,39.61,83.53,29.85,20.09,20.09,-72.63,-97.03,-97.03,-38.47,-14.07
-53.0,-57.88,-13.96,39.72,-28.6,-38.36,-33.48,-126.2,-155.48,-145.72,-77.4,-67.64
-67.29,-57.53,-3.85,35.19,-47.77,-33.13,-38.01,-135.61,-169.77,-160.01,-91.69,-77.05
-15.38,4.14,52.94,72.46,-0.74,28.54,-0.74,-93.46,-132.5,-122.74,-49.54,-30.02
48.01,67.53,126.09,155.37,67.53,96.81,72.41,-20.31,-59.35,-59.35,23.61,38.25
117.43,107.67,156.47,219.91,146.71,132.07,146.71,49.11,14.95,10.07,102.79,107.67
126.45,121.57,175.25,238.69,155.73,145.97,155.73,67.89,33.73,23.97,97.17,121.57
91.98,87.1,135.9,194.46,116.38,111.5,111.5,23.66,-5.62,-5.62,52.94,77.34
30.53,20.77,59.81,113.49,54.93,40.29,45.17,-52.43,-71.95,-76.83,-18.27,6.13
-38.77,-53.41,-9.49,58.83,-9.49,-33.89,-24.13,-121.73,-141.25,-141.25,-82.69,-58.29
-61.42,-66.3,-22.38,31.3,-37.02,-46.78,-51.66,-149.26,-168.78,-168.78,-105.34,-85.82
-25.09,-39.73,-0.69,62.75,-0.69,-20.21,-15.33,-117.81,-137.33,-127.57,-69.01,-49.49
43.46,33.7,72.74,126.42,67.86,53.22,53.22,-49.26,-83.42,-68.78,4.42,19.06
112.01,97.37,136.41,199.85,136.41,116.89,116.89,19.29,-14.87,-5.11,77.85,92.49
143.46,128.82,167.86,231.3,167.86,148.34,148.34,45.86,6.82,21.46,89.78,119.06
120.81,115.93,154.97,203.77,140.33,135.45,115.93,23.21,-10.95,-6.07,57.37,91.53
41.75,41.75,95.43,149.11,66.15,66.15,61.27,-21.69,-60.73,-55.85,12.47,36.87
-39.22,-39.22,24.22,87.66,-9.94,-9.94,-5.06,-97.78,-122.18,-117.3,-53.86,-34.34
-68.81,-73.69,-20.01,43.43,-39.53,-49.29,-44.41,-142.01,-161.53,-156.65,-98.09,-78.57
-45.15,-64.67,-20.75,52.45,-15.87,-45.15,-35.39,-132.99,-147.63,-142.75,-79.31,-64.67
4.75,-5.01,48.67,116.99,34.03,19.39,29.15,-73.33,-92.85,-87.97,-9.89,-5.01
87.66,77.9,121.82,180.38,112.06,97.42,97.42,-0.18,-19.7,-14.82,48.62,68.14
129.81,115.17,163.97,237.17,159.09,139.57,149.33,51.73,22.45,32.21,105.41,120.05
125.28,115.52,164.32,227.76,154.56,139.92,139.92,37.44,8.16,17.92,91.12,110.64
71.71,61.95,110.75,174.19,100.99,86.35,86.35,-11.25,-45.41,-35.65,37.55,57.07
-6.69,-16.45,37.23,105.55,22.59,7.95,12.83,-79.89,-109.17,-99.41,-35.97,-21.33
-50.5,-79.78,-35.86,51.98,-16.34,-60.26,-35.86,-128.58,-152.98,-157.86,-89.54,-65.14
-55.03,-84.31,-40.39,47.45,-20.87,-64.79,-40.39,-142.87,-162.39,-162.39,-94.07,-79.43
-8.0,-37.28,6.64,94.48,26.16,-17.76,1.76,-100.72,-120.24,-115.36,-37.28,-32.4
55.39,45.63,99.31,167.63,84.67,70.03,70.03,-37.33,-42.21,-37.33,30.99,40.75
119.93,110.17,158.97,222.41,149.21,134.57,124.81,27.21,12.57,17.45,110.17,95.53
133.83,128.95,177.75,236.31,158.23,153.35,138.71,36.23,21.59,31.35,104.55,109.43
104.24,99.36,138.4,187.2,123.76,118.88,99.36,-3.12,-22.64,-17.76,55.44,70.08
23.27,13.51,62.31,125.75,52.55,37.91,28.15,-69.45,-93.85,-84.09,-10.89,3.75
-41.15,-55.79,-6.99,66.21,-11.87,-31.39,-36.27,-128.99,-153.39,-143.63,-70.43,-60.67
-54.04,-78.44,-39.4,38.68,-24.76,-58.92,-58.92,-151.64,-171.16,-166.28,-93.08,-88.2
-27.47,-42.11,1.81,70.13,1.81,-22.59,-27.47,-129.95,-144.59,-144.59,-76.27,-66.51
45.96,41.08,80.12,128.92,65.48,60.6,41.08,-61.4,-76.04,-85.8,-2.84,2.04
109.63,104.75,148.67,202.35,134.03,124.27,104.75,2.27,-2.61,-12.37,55.95,70.59
131.32,126.44,180.12,243.56,160.6,150.84,141.08,43.48,33.72,23.96,87.4,106.92
118.43,118.43,162.35,206.27,137.95,137.95,118.43,11.07,1.31,-3.57,84.27,84.27
49.13,58.89,107.69,141.85,68.65,83.29,49.13,-53.35,-63.11,-63.11,29.61,14.97
-12.32,-41.6,-2.56,80.4,21.84,-22.08,-12.32,-100.16,-119.68,-114.8,-46.48,-36.72
-41.91,-95.59,-66.31,45.93,-2.87,-80.95,-51.67,-134.63,-159.03,-163.91,-85.83,-76.07
-37.77,-62.17,-23.13,54.95,-8.49,-42.65,-47.53,-125.61,-150.01,-145.13,-76.81,-62.17
17.01,-2.51,41.41,114.61,46.29,17.01,26.77,-75.71,-90.35,-85.47,-17.15,2.37
95.04,56.0,95.04,192.64,134.08,75.52,99.92,2.32,-7.44,-17.2,56.0,80.4
142.07,107.91,146.95,239.67,176.23,127.43,142.07,39.59,34.71,29.83,103.03,117.67
132.66,108.26,152.18,235.14,166.82,127.78,132.66,25.3,25.3,25.3,108.26,113.14
74.21,44.93,93.73,186.45,113.25,69.33,83.97,-23.39,-23.39,-28.27,54.69,59.57
5.57,-13.95,29.97,103.17,34.85,5.57,10.45,-96.91,-92.03,-96.91,-28.59,-9.07
-43.12,-62.64,-23.6,44.72,-13.84,-43.12,-57.76,-150.48,-150.48,-145.6,-82.16,-67.52
-62.29,-57.41,-3.73,45.07,-37.89,-33.01,-67.17,-164.77,-164.77,-159.89,-96.45,-81.81
-10.38,-20.14,28.66,92.1,18.9,4.26,-20.14,-112.86,-122.62,-122.62,-44.54,-29.9
57.89,33.49,87.17,179.89,96.93,57.89,57.89,-39.71,-39.71,-39.71,38.37,48.13
127.31,88.27,132.19,234.67,166.35,107.79,117.55,34.59,29.71,24.83,102.91,107.79
155.85,116.81,146.09,233.93,190.01,131.45,131.45,43.61,38.73,24.09,111.93,116.81
106.74,82.34,121.38,199.46,136.02,101.86,92.1,-0.62,-0.62,-15.26,67.7,62.82
20.89,11.13,64.81,133.13,50.17,35.53,25.77,-66.95,-62.07,-76.71,11.13,-8.39
-43.53,-53.29,0.39,68.71,-14.25,-28.89,-43.53,-141.13,-136.25,-146.01,-72.81,-77.69
-61.3,-75.94,-27.14,46.06,-32.02,-51.54,-71.06,-158.9,-163.78,-158.9,-95.46,-95.46
-24.97,-49.37,-5.45,77.51,9.19,-29.85,-29.85,-127.45,-127.45,-122.57,-54.25,-54.25
33.82,24.06,77.74,146.06,63.1,48.46,28.94,-68.66,-68.66,-63.78,9.42,9.42
107.25,97.49,146.29,209.73,136.53,121.89,92.61,-4.99,-4.99,-0.11,77.97,77.97
138.7,138.7,187.5,236.3,163.1,163.1,128.94,31.34,31.34,41.1,114.3,114.3
116.05,106.29,155.09,218.53,145.33,130.69,101.41,8.69,8.69,13.57,91.65,91.65
61.39,41.87,80.91,149.23,90.67,61.39,41.87,-45.97,-41.09,-45.97,32.11,27.23
-14.7,-34.22,9.7,82.9,14.58,-14.7,-24.46,-117.18,-112.3,-117.18,-19.58,-43.98
-49.17,-83.33,-44.29,48.43,-15.01,-63.81,-63.81,-161.41,-151.65,-151.65,-58.93,-93.09
-30.39,-59.67,-25.51,52.57,-1.11,-45.03,-49.91,-147.51,-137.75,-137.75,-54.79,-74.31
34.15,4.87,34.15,107.35,63.43,19.51,-0.01,-73.21,-78.09,-82.97,-4.89,-19.53
92.66,78.02,121.94,190.26,121.94,97.54,82.9,-14.7,-9.82,-4.94,73.14,63.38
134.81,129.93,178.73,237.29,159.21,154.33,125.05,22.57,32.33,37.21,115.29,110.41
125.4,120.52,174.2,237.64,154.68,144.92,110.76,18.04,22.92,22.92,105.88,101.0
81.59,81.59,125.51,169.43,101.11,101.11,66.95,-30.65,-25.77,-25.77,62.07,52.31
12.95,-1.69,37.35,100.79,37.35,17.83,-11.45,-104.17,-99.29,-99.29,-30.97,-26.09
-45.5,-65.02,-21.1,52.1,-16.22,-45.5,-60.14,-152.86,-152.86,-152.86,-79.66,-74.78
-50.03,-64.67,-20.75,47.57,-20.75,-45.15,-64.67,-157.39,-152.51,-147.63,-79.31,-84.19
-3.0,-27.4,16.52,99.48,31.16,-7.88,-17.64,-115.24,-110.36,-100.6,-42.04,-42.04
70.15,40.87,84.79,172.63,104.31,60.39,60.39,-37.21,-27.45,-22.57,40.87,40.87
129.81,110.29,154.21,227.41,159.09,129.81,115.17,22.45,27.33,37.09,100.53,95.65
138.83,138.83,187.63,236.43,163.23,163.23,114.43,11.95,21.71,36.35,104.67,99.79
104.36,99.48,143.4,197.08,128.76,119.0,84.84,-22.52,-12.76,1.88,75.08,60.44
28.27,13.63,62.43,135.63,57.55,38.03,13.63,-88.85,-69.33,-69.33,13.63,-1.01
-31.27,-70.31,-26.39,76.09,7.77,-50.79,-36.15,-143.51,-128.87,-123.99,-55.67,-50.79
-44.16,-83.2,-49.04,43.68,-10.0,-68.56,-68.56,-166.16,-156.4,-146.64,-83.2,-73.44
-22.47,-56.63,-12.71,84.89,16.57,-37.11,-41.99,-124.95,-115.19,-120.07,-56.63,-46.87
46.08,16.8,60.72,148.56,80.24,36.32,26.56,-61.28,-46.64,-51.52,11.92,21.68
119.51,90.23,129.27,212.23,153.67,109.75,99.99,-7.37,7.27,12.15,90.23,90.23
150.96,126.56,165.6,243.68,180.24,146.08,121.68,24.08,43.6,43.6,116.8,116.8
128.31,108.79,147.83,216.15,157.59,128.31,103.91,1.43,20.95,20.95,84.39,94.15
59.01,54.13,98.05,151.73,83.41,73.65,34.61,-62.99,-48.35,-43.47,29.73,29.73
-7.32,-12.2,26.84,75.64,12.2,7.32,-36.6,-139.08,-124.44,-119.56,-41.48,-46.36
-56.43,-71.07,-22.27,50.93,-27.15,-46.67,-71.07,-173.55,-158.91,-149.15,-80.83,-80.83
-52.29,-71.81,-13.25,74.59,-13.25,-42.53,-62.05,-164.53,-149.89,-135.25,-66.93,-66.93
17.13,12.25,61.05,119.61,41.53,36.65,-7.27,-104.87,-90.23,-80.47,-7.27,-12.15
90.28,85.4,134.2,192.76,114.68,109.8,70.76,-26.84,-12.2,-2.44,65.88,61.0
137.31,112.91,161.71,249.55,171.47,137.31,117.79,25.07,39.71,49.47,117.79,112.91
142.54,98.62,137.66,245.02,181.58,118.14,118.14,25.42,40.06,49.82,123.02,113.26
84.09,59.69,103.61,186.57,118.25,79.21,54.81,-23.27,-8.63,-8.63,64.57,54.81
10.57,5.69,49.61,103.29,34.97,25.21,-23.59,-121.19,-91.91,-87.03,-13.83,-18.71
-33.24,-38.12,-3.96,39.96,-13.72,-23.48,-77.16,-174.76,-145.48,-135.72,-57.64,-77.16
-42.65,-47.53,-8.49,40.31,-23.13,-28.01,-81.69,-179.29,-154.89,-150.01,-57.29,-86.57
14.14,-20.02,9.26,92.22,43.42,-5.38,-29.78,-112.74,-102.98,-102.98,-15.14,-29.78
92.17,62.89,87.29,155.61,116.57,72.65,43.37,-49.35,-39.59,-34.71,58.01,43.37
151.83,127.43,151.83,215.27,176.23,137.19,103.03,0.55,24.95,20.07,112.79,93.27
146.21,126.69,170.61,243.81,175.49,146.21,126.69,29.09,48.61,48.61,131.57,116.93
97.1,53.18,106.86,228.86,145.9,77.58,92.22,-0.5,19.02,14.14,121.5,87.34
35.65,-8.27,35.65,147.89,79.57,11.25,16.13,-76.59,-57.07,-57.07,45.41,6.37
-28.77,-58.05,-14.13,73.71,5.39,-38.53,-53.17,-150.77,-121.49,-131.25,-43.41,-62.93
-51.42,-75.82,-31.9,51.06,-17.26,-56.3,-75.82,-178.3,-153.9,-153.9,-80.7,-90.46
-19.97,-39.49,4.43,77.63,9.31,-19.97,-44.37,-146.85,-132.21,-122.45,-39.49,-68.77
48.58,33.94,77.86,146.18,77.86,53.46,24.18,-78.3,-63.66,-58.78,19.3,9.54
117.13,92.73,136.65,219.61,151.29,112.25,92.73,-4.87,4.89,4.89,112.25,82.97
148.58,133.94,177.86,246.18,177.86,153.46,129.06,26.58,36.34,41.22,129.06,114.42
125.93,111.29,155.21,223.53,155.21,130.81,101.53,3.93,13.69,13.69,91.77,86.89
61.51,41.99,85.91,159.11,90.79,61.51,41.99,-60.49,-50.73,-55.61,22.47,22.47
-4.82,-24.34,14.7,83.02,24.46,-4.82,-29.22,-126.82,-117.06,-126.82,-43.86,-43.86
-53.93,-73.45,-24.65,53.43,-19.77,-49.05,-73.45,-166.17,-161.29,-161.29,-73.45,-88.09
-35.15,-54.67,-10.75,62.45,-5.87,-35.15,-59.55,-152.27,-142.51,-147.39,-69.31,-79.07
24.51,4.99,48.91,122.11,53.79,24.51,0.11,-107.25,-92.61,-92.61,-19.41,-14.53
87.9,83.02,136.7,200.14,117.18,107.42,73.26,-29.22,-9.7,-19.46,63.5,63.5
139.81,125.17,173.97,247.17,169.09,149.57,130.05,22.69,32.45,22.69,115.41,110.53
135.28,115.76,164.56,242.64,169.44,140.16,125.52,23.04,32.8,13.28,110.88,106.0
91.47,67.07,106.11,184.19,120.75,86.59,67.07,-30.53,-20.77,-35.41,57.31,47.55
13.07,3.31,47.23,105.79,37.47,22.83,-6.45,-104.05,-94.29,-108.93,-21.09,-25.97
-45.38,-55.14,-6.34,57.1,-16.1,-30.74,-64.9,-167.38,-152.74,-167.38,-69.78,-89.3
-45.03,-79.19,-35.27,62.33,-5.99,-59.67,-54.79,-162.15,-162.15,-171.91,-84.07,-88.95
-2.88,-32.16,16.64,109.36,36.16,-7.76,-12.64,-115.12,-115.12,-120.0,-27.28,-41.92
75.15,60.51,104.43,172.75,104.43,80.03,60.51,-41.97,-41.97,-51.73,36.11,26.35
139.69,129.93,168.97,222.65,164.09,149.45,115.29,7.93,12.81,7.93,81.13,81.13
143.83,129.19,177.99,251.19,173.11,153.59,129.19,12.07,21.83,16.95,104.79,99.91
94.72,84.96,143.52,216.72,128.88,114.24,94.72,-17.52,-12.64,-12.64,65.44,60.56
33.27,18.63,67.43,140.63,62.55,43.03,18.63,-78.97,-88.73,-88.73,-5.77,-10.65
-36.03,-50.67,3.01,81.09,-1.87,-26.27,-50.67,-148.27,-153.15,-153.15,-75.07,-79.95
-48.92,-63.56,-19.64,48.68,-19.64,-44.04,-68.44,-166.04,-175.8,-185.56,-97.72,-102.6
-17.47,-27.23,16.69,75.25,6.93,-7.71,-41.87,-139.47,-149.23,-154.11,-66.27,-66.27
46.2,31.56,80.36,153.56,75.48,55.96,31.56,-66.04,-70.92,-80.68,-2.6,2.28
124.51,100.11,139.15,217.23,153.79,119.63,104.99,7.39,-2.37,-7.25,65.95,75.71
155.96,121.8,160.84,253.56,190.12,141.32,141.32,33.96,29.08,24.2,97.4,107.16
123.55,108.91,157.71,230.91,152.83,133.31,113.79,1.55,6.43,-3.33,69.87,89.39
59.13,49.37,98.17,161.61,88.41,73.77,39.61,-62.87,-72.63,-77.51,5.45,24.97
-16.96,-26.72,26.96,95.28,12.32,-2.32,-21.84,-134.08,-148.72,-148.72,-56.0,-46.24
-46.55,-61.19,-17.27,51.05,-17.27,-41.67,-61.19,-163.67,-183.19,-188.07,-100.23,-85.59
-37.53,-66.81,-18.01,74.71,1.51,-42.41,-37.53,-140.01,-164.41,-164.41,-86.33,-66.81
17.25,-2.27,51.41,134.37,51.41,22.13,17.25,-80.35,-104.75,-109.63,-31.55,-12.03
95.28,80.64,129.44,202.64,124.56,105.04,85.52,-16.96,-36.48,-41.36,41.6,56.24
142.31,117.91,166.71,254.55,176.47,142.31,132.55,39.83,15.43,5.67,93.51,103.27
147.54,118.26,157.3,240.26,181.7,137.78,132.9,30.42,10.9,1.14,84.1,93.86
89.09,64.69,108.61,191.57,123.25,84.21,79.33,-28.03,-47.55,-52.43,25.65,45.17
15.57,-8.83,35.09,118.05,49.73,10.69,0.93,-106.43,-125.95,-130.83,-57.63,-42.99
-23.36,-47.76,-18.48,49.84,1.04,-33.12,-57.52,-155.12,-184.4,-189.28,-111.2,-96.56
-37.65,-66.93,-27.89,55.07,-3.49,-47.41,-57.17,-169.41,-188.93,-188.93,-96.21,-96.21
-10.14,-29.66,28.9,116.74,28.9,-0.38,-0.38,-102.86,-127.26,-137.02,-54.06,-39.42
67.89,23.97,77.65,199.65,116.69,48.37,87.41,-19.95,-44.35,-58.99,23.97,38.61
127.55,93.39,147.07,254.43,171.47,117.79,132.43,34.83,10.43,-9.09,78.75,98.27
146.33,117.05,165.85,258.57,185.37,141.45,141.45,43.85,9.69,-0.07,82.89,102.41
106.98,77.7,126.5,219.22,146.02,102.1,106.98,9.38,-19.9,-29.66,43.54,67.94
30.89,11.37,65.05,148.01,65.05,35.77,35.77,-66.71,-91.11,-100.87,-32.55,-17.91
-23.77,-43.29,0.63,73.83,5.51,-23.77,-28.65,-136.01,-160.41,-165.29,-92.09,-72.57
-46.42,-61.06,-17.14,51.18,-17.14,-41.54,-56.18,-168.42,-183.06,-192.82,-109.86,-100.1
-14.97,-58.89,-14.97,97.27,28.95,-39.37,-14.97,-117.45,-146.73,-156.49,-63.77,-58.89
53.58,14.54,58.46,160.94,92.62,34.06,48.7,-63.54,-87.94,-87.94,-9.86,4.78
107.49,92.85,151.41,234.37,141.65,122.13,112.37,9.89,-19.39,-24.27,48.93,73.33
148.7,138.94,187.74,251.18,177.98,163.34,148.7,46.22,12.06,2.3,80.38,104.78
126.05,106.53,155.33,233.41,160.21,130.93,121.17,23.57,-15.47,-25.23,67.49,82.13
61.63,22.59,71.39,178.75,105.55,46.99,61.63,-40.85,-75.01,-84.77,-6.69,17.71
-4.7,-53.5,-9.58,107.54,39.22,-33.98,0.18,-102.3,-136.46,-155.98,-73.02,-53.5
-53.81,-87.97,-34.29,73.07,-9.89,-63.57,-34.29,-141.65,-175.81,-195.33,-112.37,-92.85
-30.15,-59.43,-15.51,72.33,4.01,-39.91,-30.15,-132.63,-166.79,-181.43,-108.23,-78.95
29.51,9.99,53.91,127.11,58.79,29.51,29.51,-72.97,-107.13,-116.89,-43.69,-19.29
97.78,78.26,127.06,205.14,131.94,102.66,102.66,-4.7,-38.86,-48.62,29.46,48.98
149.69,135.05,178.97,247.29,178.97,154.57,154.57,42.33,8.17,3.29,81.37,110.65
154.92,145.16,179.32,228.12,174.44,159.8,150.04,52.44,8.52,-1.24,81.72,106.12
106.23,91.59,120.87,174.55,125.75,106.23,96.47,-1.13,-45.05,-59.69,18.39,47.67
37.59,13.19,37.59,101.03,61.99,22.95,27.83,-69.77,-113.69,-128.33,-50.25,-20.97
-20.86,-50.14,-20.86,52.34,8.42,-35.5,-25.74,-123.34,-162.38,-181.9,-98.94,-69.66
-25.39,-40.03,-10.75,42.93,-5.87,-25.39,-40.03,-132.75,-166.91,-186.43,-113.23,-83.95
31.4,11.88,31.4,80.2,50.92,21.64,11.88,-80.84,-119.88,-139.4,-71.08,-41.8
104.55,89.91,109.43,153.35,119.19,99.67,85.03,-2.81,-46.73,-61.37,6.95,31.35
169.09,169.09,183.73,198.37,173.97,173.97,144.69,42.21,8.05,-6.59,81.25,95.89
182.99,187.87,202.51,212.27,187.87,192.75,158.59,56.11,21.95,7.31,95.15,104.91
138.76,158.28,177.8,168.04,138.76,168.04,109.48,7.0,-27.16,-36.92,41.16,60.68
62.67,77.31,101.71,106.59,67.55,87.07,33.39,-64.21,-93.49,-108.13,-30.05,4.11
8.01,-6.63,8.01,47.05,22.65,-1.75,-40.79,-128.63,-172.55,-182.31,-109.11,-70.07
-14.64,-39.04,-24.4,29.28,4.88,-34.16,-53.68,-146.4,-190.32,-195.2,-117.12,-87.84
21.69,-2.71,7.05,55.85,36.33,2.17,-12.47,-110.07,-153.99,-163.75,-80.79,-56.39
100.0,75.6,75.6,114.64,109.76,75.6,60.96,-36.64,-80.56,-100.08,-26.88,2.4
168.55,109.99,109.99,197.83,197.83,109.99,158.79,51.43,-2.25,-7.13,51.43,90.47
204.88,156.08,151.2,219.52,224.4,151.2,185.36,78.0,34.08,24.32,87.76,126.8
187.11,138.31,128.55,191.99,206.63,133.43,162.71,50.47,11.43,-3.21,65.11,99.27
103.17,83.65,93.41,132.45,117.81,88.53,103.17,-9.07,-48.11,-52.99,25.09,54.37
27.08,41.72,56.36,51.48,27.08,46.6,22.2,-99.8,-124.2,-124.2,-46.12,-16.84
12.13,21.89,12.13,-12.27,2.37,17.01,-22.03,-129.39,-158.67,-163.55,-80.59,-56.19
30.91,35.79,21.15,1.63,21.15,26.03,-3.25,-100.85,-130.13,-144.77,-71.57,-27.65
85.69,100.33,90.57,61.29,71.05,95.45,61.29,-55.83,-85.11,-94.87,-11.91,27.13
168.6,188.12,168.6,119.8,149.08,178.36,134.44,17.32,-16.84,-26.6,56.36,95.4
200.99,244.91,240.03,171.71,176.59,240.03,191.23,78.99,49.71,30.19,103.39,142.43
201.34,225.74,215.98,172.06,181.82,220.86,206.22,93.98,50.06,40.3,103.74,142.78
152.65,177.05,162.41,113.61,133.13,167.29,167.29,59.93,6.25,1.37,79.45,89.21
79.13,98.65,84.01,40.09,59.61,88.89,103.53,-8.71,-57.51,-67.27,-3.83,20.57
25.56,30.44,15.8,-3.72,15.8,20.68,54.84,-52.52,-111.08,-120.84,-67.16,-37.88
25.91,6.39,-13.13,-3.37,25.91,-3.37,50.31,-52.17,-115.61,-120.49,-61.93,-37.53
77.82,53.42,29.02,43.66,77.82,38.78,77.82,-24.66,-73.46,-83.22,-24.66,9.5
160.73,131.45,97.29,107.05,155.85,111.93,111.93,38.73,-10.07,-14.95,53.37,82.65
215.51,186.23,156.95,171.59,215.51,171.59,147.19,69.11,25.19,20.31,103.27,127.67
219.65,175.73,156.21,205.01,229.41,165.97,156.21,68.37,39.09,34.21,122.05,151.33
180.3,126.62,107.1,170.54,194.94,116.86,107.1,29.02,-0.26,-5.14,77.82,111.98
109.09,50.53,31.01,99.33,128.61,40.77,26.13,-47.07,-76.35,-76.35,-3.15,35.89
25.15,-43.17,-43.17,59.31,59.31,-43.17,-28.53,-111.49,-145.65,-140.77,-67.57,-28.53
-2.38,-70.7,-65.82,41.54,31.78,-70.7,-56.06,-143.9,-178.06,-173.18,-99.98,-60.94
29.07,-44.13,-39.25,77.87,68.11,-44.13,-19.73,-112.45,-151.49,-151.49,-63.65,-34.37
92.74,24.42,34.18,146.42,131.78,29.3,48.82,-53.66,-92.7,-92.7,-19.5,29.3
146.65,92.97,117.37,224.73,185.69,102.73,117.37,0.25,-43.67,-38.79,39.29,83.21
168.34,114.66,148.82,265.94,212.26,129.3,158.58,31.7,-17.1,-17.1,65.86,109.78
135.93,82.25,126.17,253.05,184.73,101.77,145.69,23.69,-29.99,-39.75,33.45,72.49
66.63,17.83,66.63,188.63,115.43,42.23,76.39,-50.49,-104.17,-109.05,-40.73,3.19
-4.58,-48.5,0.3,117.42,39.34,-24.1,5.18,-121.7,-170.5,-180.26,-111.94,-63.14
-43.93,-82.97,-34.17,73.19,-0.01,-58.57,-34.17,-165.93,-209.85,-229.37,-146.41,-102.49
-34.91,-59.31,-5.63,87.09,4.13,-34.91,-30.03,-161.79,-200.83,-210.59,-127.63,-93.47
29.63,5.23,54.03,141.87,63.79,29.63,24.75,-107.01,-146.05,-155.81,-63.09,-33.81
93.02,78.38,136.94,219.9,127.18,107.66,93.02,-33.86,-72.9,-87.54,14.94,39.34
140.05,125.41,183.97,266.93,174.21,154.69,140.05,13.17,-30.75,-35.63,42.45,86.37
145.28,116.0,164.8,257.52,184.32,140.4,140.4,13.52,-35.28,-40.16,52.56,91.6
86.83,57.55,111.23,208.83,125.87,81.95,86.83,-44.93,-88.85,-93.73,3.87,33.15
18.19,-11.09,37.71,130.43,57.23,13.31,8.43,-103.81,-162.37,-167.25,-84.29,-35.49
-35.38,-93.94,-45.14,91.5,18.3,-69.54,-30.5,-147.62,-206.18,-206.18,-118.34,-74.42
-39.91,-98.47,-49.67,86.97,13.77,-74.07,-30.15,-152.15,-205.83,-210.71,-122.87,-83.83
7.12,-31.92,16.88,124.24,51.04,-7.52,12.0,-110.0,-163.68,-168.56,-85.6,-46.56
75.39,36.35,90.03,202.27,119.31,60.75,80.27,-36.85,-85.65,-95.41,-17.33,26.59
135.05,96.01,149.69,261.93,178.97,120.41,139.93,22.81,-25.99,-35.75,42.33,86.25
153.83,109.91,158.71,275.83,197.75,134.31,148.95,36.71,-12.09,-21.85,51.35,95.27
104.72,70.56,129.12,241.36,148.64,99.84,109.6,-7.52,-61.2,-66.08,16.88,60.8
38.39,9.11,62.79,160.39,77.43,33.51,38.39,-83.61,-132.41,-142.17,-54.33,-15.29
-30.91,-50.43,8.13,95.97,8.13,-21.15,-26.03,-138.27,-196.83,-206.59,-113.87,-79.71
-58.44,-73.08,-9.64,78.2,-19.4,-43.8,-43.8,-156.04,-219.48,-229.24,-156.04,-112.12
-36.75,-51.39,21.81,119.41,7.17,-17.23,12.05,-95.31,-163.63,-183.15,-124.59,-80.67
26.92,7.4,85.48,192.84,75.72,46.44,119.64,26.92,-60.92,-99.96,-70.68,-21.88
95.47,100.35,178.43,251.63,129.63,139.39,236.99,183.31,51.55,-7.01,-16.77,22.27
131.8,195.24,268.44,248.92,136.68,229.4,312.36,292.84,141.56,43.96,-9.72,24.44
104.27,221.39,299.47,201.87,84.75,260.43,333.63,362.91,206.75,84.75,-22.61,6.67
64.25,200.89,254.57,103.29,20.33,225.29,288.73,376.57,225.29,88.65,-57.75,-38.23
22.32,188.24,212.64,-11.84,-50.88,198.0,232.16,373.68,222.4,85.76,-85.04,-75.28
2.49,173.29,178.17,-70.71,-80.47,173.29,212.33,397.77,256.25,119.61,-80.47,-90.23
60.31,162.79,123.75,-66.57,-12.89,143.27,265.27,470.23,377.51,240.87,-17.77,-37.29
139.49,212.69,154.13,-11.79,71.17,183.41,354.21,593.33,559.17,427.41,110.21,66.29
232.16,344.4,266.32,22.32,134.56,305.36,437.12,642.08,729.92,642.08,266.32,202.88
313.35,464.63,352.39,15.67,181.59,406.07,435.35,547.59,835.51,835.51,425.59,332.87
338.1,547.94,406.42,-47.42,162.42,474.74,323.46,328.34,850.5,977.38,567.46,445.46
333.33,601.73,411.41,-179.07,103.97,504.13,113.73,-18.03,762.77,1065.33,689.57,533.41
289.09,664.85,445.25,-335.55,-8.59,552.61,-145.23,-423.39,625.81,1143.09,821.01,630.69
250.16,782.08,547.84,-481.84,-135.36,664.96,-374.48,-838.08,411.2,1172.48,991.92,752.8
230.99,880.03,660.43,-530.29,-203.33,767.79,-496.13,-1208.61,157.79,1167.95,1158.19,904.43
248.74,922.18,731.86,-468.62,-185.58,824.58,-517.42,-1420.22,-14.78,1171.06,1288.18,1049.06
287.73,917.25,761.09,-336.91,-107.55,839.17,-483.31,-1493.47,-107.55,1171.01,1410.13,1161.25
303.47,810.99,698.75,-174.77,-8.85,752.43,-389.49,-1516.77,-165.01,1133.07,1455.15,1206.27
258.81,522.33,468.65,19.69,97.77,493.05,-243.83,-1473.59,-238.95,956.65,1312.89,1098.17
165.78,214.58,214.58,141.38,141.38,214.58,-131.9,-1395.82,-390.54,604.98,1039.3,868.5
16.49,-7.91,70.17,187.29,65.29,31.13,-110.39,-1369.43,-613.03,167.77,694.81,597.21
-121.13,-165.05,-13.77,205.83,-23.53,-91.85,-169.93,-1389.93,-862.89,-301.69,332.71,342.47
-187.7,-241.38,-46.18,231.98,-65.7,-143.78,-221.86,-1373.54,-1075.86,-758.66,51.42,153.9
-205.05,-307.53,-63.53,336.63,-34.25,-185.53,-185.53,-1298.17,-1298.17,-1220.09,-156.25,14.55
-156.02,-331.7,-68.18,458.86,63.58,-199.94,-151.14,-1200.34,-1395.54,-1424.82,-258.5,-34.02
-72.83,-336.35,-87.47,556.69,180.93,-214.35,-82.59,-1019.55,-1244.03,-1253.79,-219.23,-28.91
-46.26,-343.94,-90.18,612.54,227.02,-217.06,-16.98,-856.34,-1080.82,-1095.46,-236.58,-56.02
-78.67,-351.95,-88.43,585.01,189.73,-220.19,-64.03,-791.15,-971.71,-986.35,-268.99,-117.71
-123.57,-377.33,-133.33,491.31,125.31,-255.33,-211.41,-801.89,-943.41,-943.41,-309.01,-187.01
-155.74,-394.86,-189.9,376.18,63.86,-292.38,-350.94,-780.38,-902.38,-892.62,-346.06,-233.82
-160.93,-380.53,-209.73,292.91,34.27,-297.57,-409.81,-702.61,-814.85,-814.85,-356.13,-248.77
-132.39,-347.11,-190.95,287.29,53.05,-269.03,-395.91,-615.51,-713.11,-722.87,-322.71,-225.11
-58.09,-277.69,-136.17,337.19,122.47,-209.37,-292.33,-477.77,-565.61,-575.37,-238.65,-150.81
29.7,-185.02,-58.14,390.82,200.5,-121.58,-145.98,-321.66,-385.1,-414.38,-121.58,-48.38
96.25,-123.35,-15.99,423.21,257.29,-69.67,-35.51,-206.31,-259.99,-299.03,-50.15,13.29
121.0,-93.72,-15.64,384.52,267.4,-54.68,13.64,-127.88,-181.56,-225.48,-30.28,18.52
82.07,-108.25,-44.81,306.55,208.95,-78.97,18.63,-93.61,-152.17,-210.73,-54.57,-15.53
23.19,-152.49,-103.69,208.63,135.43,-128.09,3.67,-89.05,-162.25,-230.57,-108.57,-74.41
-15.74,-162.14,-127.98,125.78,72.1,-147.5,-25.5,-103.58,-176.78,-230.46,-118.22,-108.46
-10.51,-117.87,-93.47,91.97,52.93,-108.11,-30.03,-83.71,-147.15,-186.19,-93.47,-88.59
36.52,-36.68,-12.28,124.36,85.32,-26.92,21.88,-12.28,-61.08,-109.88,-22.04,-26.92
104.79,60.87,90.15,187.75,138.95,75.51,99.91,80.39,36.47,-17.21,41.35,51.11
154.69,120.53,159.57,252.29,188.85,140.05,174.21,169.33,105.89,57.09,120.53,110.77
173.47,129.55,163.71,266.19,212.51,144.19,207.63,207.63,149.07,85.63,139.31,129.55
139.0,80.44,109.72,226.84,182.92,95.08,182.92,178.04,124.36,60.92,114.6,90.2
72.67,14.11,38.51,150.75,111.71,23.87,126.35,116.59,72.67,9.23,43.39,23.87
3.37,-35.67,-6.39,81.45,37.53,-21.03,66.81,57.05,8.25,-55.19,-35.67,-50.31
-38.8,-48.56,0.24,63.68,-9.52,-24.16,44.16,44.16,-4.64,-68.08,-58.32,-72.96
-2.47,-12.23,31.69,90.25,21.93,7.29,80.49,80.49,26.81,-21.99,-17.11,-36.63
75.84,66.08,100.24,149.04,95.36,80.72,144.16,158.8,95.36,51.44,41.68,31.92
144.39,110.23,144.39,232.23,178.55,124.87,212.71,237.11,163.91,129.75,110.23,100.47
190.48,146.56,166.08,253.92,219.76,156.32,258.8,278.32,205.12,170.96,151.44,141.68
158.07,123.91,153.19,236.15,187.35,138.55,241.03,260.55,182.47,148.31,128.79,123.91
83.89,54.61,93.65,176.61,118.05,74.13,181.49,201.01,132.69,83.89,64.37,64.37
27.32,2.92,27.32,90.76,51.72,12.68,100.52,134.68,61.48,17.56,-11.72,-21.48
-16.91,-31.55,-2.27,51.41,2.61,-16.91,61.17,105.09,27.01,-21.79,-51.07,-55.95
-17.65,-17.65,26.27,70.19,1.87,1.87,75.07,104.35,45.79,1.87,-27.41,-32.29
56.65,22.49,51.77,134.73,85.93,37.13,149.37,178.65,129.85,81.05,56.65,32.25
134.68,115.16,139.56,193.24,154.2,124.92,217.64,261.56,198.12,159.08,124.92,95.64
191.47,181.71,196.35,225.63,201.23,186.59,259.79,318.35,250.03,206.11,157.31,147.55
182.06,177.18,196.7,225.98,191.82,186.94,255.26,289.42,230.86,191.82,152.78,147.9
128.49,113.85,133.37,177.29,143.13,123.61,216.33,245.61,187.05,148.01,104.09,99.21
50.09,20.81,45.21,113.53,74.49,30.57,152.57,191.61,128.17,79.37,54.97,35.45
-3.48,-32.76,-8.36,59.96,20.92,-23.0,94.12,138.04,84.36,25.8,-8.36,-18.12
-3.13,-32.41,-12.89,50.55,21.27,-22.65,94.47,138.39,89.59,31.03,-17.77,-22.65
39.02,29.26,53.66,92.7,53.66,39.02,136.62,180.54,136.62,78.06,34.14,29.26
112.17,92.65,117.05,170.73,131.69,102.41,214.65,258.57,219.53,156.09,112.17,107.29
181.59,176.71,191.35,215.75,191.35,181.59,269.43,323.11,284.07,220.63,181.59,162.07
190.61,190.61,210.13,229.65,200.37,200.37,288.21,341.89,293.09,239.41,195.49,180.85
156.14,131.74,146.38,200.06,175.66,136.62,253.74,312.3,268.38,209.82,170.78,151.26
94.69,60.53,65.41,123.97,114.21,60.53,172.77,241.09,197.17,138.61,94.69,75.17
30.27,10.75,15.63,49.79,40.03,10.75,113.23,176.67,132.75,74.19,15.63,0.99
-2.14,-11.9,2.74,32.02,7.62,-7.02,110.1,173.54,124.74,61.3,7.62,-7.02
39.07,29.31,34.19,53.71,43.95,29.31,136.67,214.75,161.07,92.75,43.95,19.55
97.86,88.1,102.74,132.02,107.62,92.98,200.34,278.42,239.38,171.06,112.5,83.22
171.29,161.53,171.29,195.69,181.05,166.41,273.77,346.97,312.81,244.49,185.93,161.53
202.74,188.1,197.86,232.02,212.5,192.98,310.1,383.3,349.14,285.7,212.5,188.1
184.97,170.33,175.21,204.49,194.73,170.33,287.45,365.53,336.25,272.81,184.97,165.45
125.43,125.43,125.43,125.43,125.43,125.43,218.15,305.99,266.95,218.15,130.31,105.91
49.34,44.46,49.34,63.98,54.22,44.46,146.94,234.78,195.74,146.94,73.74,39.58
14.87,5.11,5.11,19.75,19.75,5.11,117.35,210.07,161.27,117.35,34.39,5.11
28.77,28.77,28.77,28.77,28.77,28.77,131.25,223.97,180.05,136.13,53.17,19.01
93.31,88.43,83.55,88.43,93.31,83.55,190.91,288.51,244.59,200.67,112.83,78.67
185.98,166.46,142.06,146.94,181.1,151.82,264.06,361.66,322.62,268.94,176.22,146.94
228.13,213.49,193.97,198.85,223.25,203.73,315.97,418.45,384.29,330.61,237.89,193.97
213.84,218.72,208.96,194.32,204.08,213.84,306.56,413.92,389.52,335.84,218.72,194.32
145.63,155.39,160.27,150.51,140.75,155.39,252.99,374.99,345.71,292.03,174.91,145.63
81.87,67.23,62.35,81.87,86.75,62.35,179.47,311.23,291.71,233.15,106.27,76.99
42.94,23.42,3.9,13.66,42.94,13.66,130.78,257.66,243.02,189.34,57.58,23.42
28.65,28.65,18.89,9.13,23.77,23.77,126.25,262.89,238.49,189.69,67.69,18.89
80.56,80.56,65.92,51.28,70.8,70.8,168.4,309.92,285.52,241.6,104.96,61.04
153.71,173.23,158.59,114.67,134.19,163.47,246.43,397.71,368.43,324.51,173.23,143.95
218.25,228.01,208.49,174.33,203.61,218.25,306.09,462.25,437.85,389.05,242.65,213.37
241.91,222.39,193.11,193.11,237.03,207.75,329.75,490.79,476.15,417.59,266.31,241.91
212.32,187.92,148.88,148.88,202.56,168.4,290.4,456.32,446.56,388.0,231.84,192.8
126.47,126.47,102.07,77.67,111.83,111.83,224.07,394.87,389.99,331.43,170.39,136.23
76.69,71.81,32.77,3.49,57.17,52.29,154.77,340.21,335.33,271.89,110.85,71.81
54.04,39.4,0.36,-14.28,39.4,19.88,127.24,332.2,341.96,263.88,102.84,54.04
85.49,95.25,56.21,2.53,61.09,75.73,153.81,353.89,363.65,295.33,148.93,80.61
149.16,173.56,139.4,71.08,119.88,154.04,227.24,432.2,446.84,378.52,217.48,158.92
222.59,227.47,188.43,144.51,198.19,207.95,300.67,520.27,534.91,461.71,286.03,246.99
258.92,244.28,200.36,180.84,244.28,219.88,341.88,566.36,576.12,512.68,322.36,278.44
246.03,231.39,177.71,148.43,226.51,202.11,319.23,553.47,563.23,499.79,309.47,260.67
181.61,171.85,118.17,79.13,157.21,142.57,259.69,503.69,523.21,445.13,249.93,201.13
125.04,115.28,46.96,-6.72,95.76,81.12,188.48,442.24,476.4,388.56,178.72,134.8
80.81,80.81,17.37,-46.07,46.65,46.65,149.13,412.65,446.81,363.85,144.25,95.45
104.47,99.59,26.39,-37.05,70.31,60.55,153.27,436.31,470.47,387.51,158.15,114.23
173.89,164.13,81.17,12.85,134.85,120.21,217.81,515.49,554.53,471.57,232.45,183.65
242.16,247.04,168.96,86.0,198.24,208.0,295.84,593.52,637.44,569.12,315.36,261.68
294.07,298.95,215.99,128.15,250.15,255.03,342.87,669.83,708.87,625.91,381.91,318.47
284.66,299.3,221.22,123.62,235.86,260.26,338.34,655.54,699.46,626.26,396.9,313.94
235.97,231.09,148.13,74.93,196.93,187.17,294.53,621.49,670.29,592.21,338.45,265.25
172.21,157.57,64.85,-3.47,133.17,108.77,230.77,572.37,616.29,538.21,284.45,211.25
123.52,104.0,6.4,-61.92,84.48,55.2,177.2,533.44,582.24,509.04,235.76,162.56
118.99,118.99,21.39,-76.21,70.19,70.19,172.67,553.31,611.87,528.91,231.23,162.91
170.9,175.78,73.3,-34.06,117.22,122.1,224.58,614.98,678.42,600.34,288.02,219.7
248.93,258.69,151.33,29.33,190.37,205.01,287.97,707.65,771.09,697.89,370.93,297.73
318.35,332.99,215.87,79.23,250.03,274.43,342.75,772.19,850.27,772.19,440.35,367.15
346.89,361.53,229.77,78.49,273.69,293.21,361.53,805.61,888.57,825.13,488.41,395.69
317.3,317.3,175.78,34.26,244.1,244.1,327.06,790.66,868.74,805.3,463.7,370.98
255.85,250.97,99.69,-41.83,182.65,172.89,260.73,743.85,821.93,763.37,402.25,319.29
196.31,206.07,49.91,-120.89,113.35,127.99,186.55,684.31,767.27,718.47,337.83,254.87
163.9,193.18,46.78,-143.54,76.06,119.98,173.66,686.06,778.78,725.1,334.7,251.74
200.23,234.39,83.11,-116.97,107.51,156.31,209.99,746.79,834.63,780.95,400.31,297.83
278.54,307.82,146.78,-58.18,180.94,224.86,273.66,829.98,932.46,873.9,483.5,376.14
361.73,386.13,210.45,0.61,259.25,298.29,337.33,908.29,1030.29,976.61,561.81,459.33
407.82,432.22,241.9,17.42,300.46,334.62,373.66,964.14,1086.14,1037.34,622.54,500.54
385.17,409.57,219.25,-5.23,277.81,311.97,351.01,965.89,1102.53,1053.73,619.41,492.53
345.15,374.43,159.71,-98.93,223.15,267.07,291.47,916.11,1062.51,1028.35,579.39,447.63
278.82,298.34,78.74,-170.14,156.82,186.1,215.38,869.3,1015.7,986.42,522.82,395.94
239.47,244.35,24.75,-199.73,127.23,132.11,180.91,854.35,1005.63,981.23,507.87,385.87
263.13,292.41,63.05,-210.23,131.37,175.29,185.05,878.01,1034.17,1019.53,536.41,409.53
332.55,371.59,132.47,-165.21,191.03,249.59,234.95,947.43,1113.35,1098.71,605.83,474.07
425.22,459.38,200.74,-106.7,278.82,327.62,303.22,1049.86,1230.42,1210.9,708.26,571.62
477.13,506.41,242.89,-64.55,330.73,374.65,350.25,1106.65,1301.85,1292.09,779.69,633.29
477.48,526.28,257.88,-83.72,316.44,389.64,340.84,1087.48,1307.08,1307.08,784.92,643.4
438.55,487.35,204.31,-151.93,272.63,345.83,277.51,1063.19,1287.67,1287.67,755.75,619.11
369.91,423.59,135.67,-230.33,199.11,277.19,199.11,999.43,1243.43,1243.43,701.75,560.23
326.1,384.66,86.98,-298.54,145.54,233.38,140.66,955.62,1204.5,1224.02,682.34,531.06
331.33,404.53,97.09,-317.71,141.01,248.37,136.13,960.85,1219.49,1243.89,711.97,541.17
383.24,451.56,139.24,-275.56,192.92,295.4,168.52,1017.64,1276.28,1310.44,759.0,602.84
466.15,539.35,217.27,-212.17,266.07,378.31,241.67,1090.79,1368.95,1403.11,851.67,690.63
535.57,613.65,281.81,-167.15,330.61,447.73,291.57,1150.45,1443.25,1482.29,935.73,764.93
549.47,632.43,300.59,-153.25,339.63,466.51,300.59,1169.23,1471.79,1515.71,964.27,793.47
515.0,597.96,261.24,-197.48,305.16,427.16,251.48,1125.0,1442.2,1491.0,934.68,759.0
448.67,546.27,204.67,-283.33,229.07,375.47,170.51,1044.03,1380.75,1434.43,878.11,702.43
384.25,496.49,154.89,-352.63,154.89,325.69,91.45,974.73,1321.21,1384.65,823.45,642.89
371.36,488.48,137.12,-389.92,137.12,312.8,59.04,937.44,1303.44,1366.88,820.32,625.12
397.93,519.93,173.45,-353.59,163.69,344.25,100.25,964.01,1339.77,1417.85,861.53,671.21
471.36,583.6,232.24,-285.04,237.12,407.92,168.8,1027.68,1408.32,1491.28,944.72,759.28
549.67,671.67,310.55,-231.13,305.67,491.11,222.71,1076.71,1462.23,1550.07,1018.15,818.07
571.36,717.76,366.4,-204.56,322.48,542.08,244.4,1088.64,1483.92,1576.64,1030.08,839.76
553.59,695.11,338.87,-227.21,304.71,514.55,216.87,1051.35,1446.63,1544.23,1012.31,821.99
479.41,611.17,264.69,-276.99,240.29,435.49,157.33,967.41,1377.33,1470.05,943.01,762.45
403.32,525.32,183.72,-338.44,169.08,354.52,81.24,871.8,1286.6,1384.2,862.04,676.6
368.85,490.85,144.37,-382.67,134.61,315.17,27.25,812.93,1227.73,1325.33,808.05,622.61
363.23,519.39,192.43,-368.77,119.23,353.47,31.39,773.15,1207.47,1309.95,802.43,616.99
418.01,588.81,266.73,-309.11,169.13,427.77,86.17,803.53,1252.49,1354.97,852.33,671.77
491.16,622.92,300.84,-216.44,261.8,461.88,159.32,881.56,1301.24,1403.72,915.72,735.16
504.03,655.31,367.39,-145.01,284.43,508.91,206.35,889.55,1304.35,1416.59,948.11,772.43
484.86,660.54,387.26,-149.54,260.38,523.9,196.94,841.1,1251.02,1358.38,914.3,743.5
426.41,582.57,314.17,-188.47,211.69,445.93,153.13,768.01,1168.17,1265.77,846.09,675.29
348.01,499.29,235.77,-252.23,138.17,367.53,79.61,665.21,1055.61,1148.33,748.17,582.25
279.8,435.96,187.08,-296.04,74.84,309.08,21.16,572.6,958.12,1036.2,650.68,499.4
255.75,411.91,182.55,-281.05,60.55,294.79,11.75,529.03,899.91,982.87,602.23,460.71
293.02,444.3,224.7,-219.38,107.58,332.06,63.66,541.9,907.9,981.1,624.86,483.34
346.65,493.05,292.97,-126.71,170.97,390.57,131.93,576.01,932.25,1005.45,658.97,527.21
386.79,528.31,347.75,-42.65,225.75,435.59,191.59,606.39,938.23,1006.55,679.59,552.71
390.93,537.33,366.53,-23.87,229.89,449.49,210.37,591.01,908.21,976.53,659.33,547.09
336.94,473.58,317.42,-43.7,190.54,395.5,171.02,517.5,810.3,868.86,576.06,483.34
246.21,392.61,255.97,-100.27,104.69,324.29,94.93,407.25,680.53,739.09,465.81,377.97
176.91,313.55,181.79,-154.93,40.27,245.23,35.39,318.43,567.31,625.87,376.99,294.03
134.74,256.74,144.5,-148.3,17.62,198.18,7.86,266.5,495.86,549.54,315.3,251.86
161.31,263.79,156.43,-102.21,53.95,210.11,39.31,278.43,498.03,527.31,327.23,258.91
220.1,322.58,224.98,-23.9,117.62,273.78,112.74,327.46,527.54,556.82,356.74,298.18
274.01,376.49,293.53,59.29,181.29,332.57,181.29,356.97,547.29,571.69,405.77,337.45
300.58,393.3,315.22,100.5,212.74,354.26,212.74,364.02,534.82,559.22,412.82,349.38
263.29,356.01,292.57,92.49,185.21,321.85,185.21,321.85,473.13,487.77,346.25,302.33
184.23,272.07,223.27,42.71,115.91,247.67,125.67,223.27,359.91,389.19,257.43,223.27
108.14,186.22,142.3,-18.74,44.7,161.82,54.46,142.3,259.42,283.82,166.7,142.3
54.15,132.23,102.95,-43.45,0.47,117.59,10.23,88.31,181.03,205.43,102.95,83.43
58.29,136.37,116.85,-19.79,9.49,126.61,29.01,87.57,165.65,190.05,102.21,82.69
113.07,191.15,176.51,44.75,64.27,181.39,83.79,132.59,205.79,220.43,142.35,127.71
181.34,230.14,220.38,137.42,152.06,225.26,166.7,200.86,264.3,274.06,200.86,195.98
228.37,257.65,247.89,194.21,208.85,252.77,223.49,238.13,291.81,301.57,252.77,228.37
218.96,258.0,253.12,189.68,194.56,253.12,204.32,209.2,258.0,262.88,238.48,199.44
160.51,209.31,209.31,136.11,136.11,209.31,155.63,140.99,184.91,189.79,145.87,136.11
77.23,135.79,145.55,67.47,52.83,140.67,82.11,62.59,96.75,106.51,62.59,57.71
18.78,43.18,57.82,38.3,13.9,48.06,33.42,4.14,28.54,38.3,-0.74,4.14
14.25,28.89,43.53,38.65,14.25,33.77,24.01,-15.03,4.49,19.13,-10.15,-5.27
51.52,75.92,100.32,90.56,51.52,85.68,66.16,27.12,32.0,36.88,22.24,32.0
119.79,153.95,183.23,163.71,114.91,168.59,139.31,90.51,90.51,95.39,90.51,105.15
179.45,198.97,228.25,228.25,184.33,213.61,203.85,150.17,140.41,150.17,164.81,164.81
188.47,193.35,227.51,256.79,203.11,207.99,222.63,164.07,159.19,164.07,168.95,173.83
149.12,154.0,188.16,217.44,163.76,168.64,188.16,114.96,110.08,114.96,110.08,124.72
77.91,82.79,116.95,146.23,92.55,97.43,112.07,38.87,33.99,33.99,38.87,58.39
13.49,-6.03,28.13,91.57,37.89,8.61,52.53,-20.67,-30.43,-25.55,-20.67,-6.03
0.6,-14.04,10.36,59.16,20.12,-4.28,20.12,-53.08,-62.84,-57.96,-48.2,-38.44
32.05,22.29,46.69,85.73,46.69,32.05,51.57,-31.39,-41.15,-36.27,-36.27,-11.87
95.72,85.96,115.24,159.16,115.24,100.6,125.0,37.16,22.52,32.28,42.04,56.68
149.63,154.51,198.43,237.47,169.15,174.03,203.31,120.35,95.95,100.83,110.59,130.11
171.32,171.32,225.0,278.68,195.72,195.72,234.76,156.68,127.4,137.16,161.56,161.56
163.31,163.31,202.35,241.39,182.83,182.83,212.11,124.27,90.11,99.87,114.51,124.27
103.77,94.01,128.17,176.97,123.29,108.65,142.81,64.73,30.57,30.57,30.57,50.09
22.8,8.16,52.08,120.4,52.08,27.68,76.48,-1.6,-30.88,-35.76,-45.52,-16.24
-16.55,-31.19,12.73,81.05,12.73,-11.67,37.13,-40.95,-65.35,-70.23,-65.35,-45.83
-2.65,-2.65,41.27,85.19,16.87,16.87,46.15,-27.05,-51.45,-56.33,-56.33,-31.93
61.89,61.89,100.93,139.97,81.41,81.41,96.05,27.73,3.33,3.33,-11.31,22.85
135.04,130.16,169.2,218.0,154.56,149.68,178.96,105.76,81.36,76.48,71.6,100.88
182.07,162.55,201.59,269.91,211.35,182.07,225.99,157.67,128.39,128.39,133.27,157.67
182.42,148.26,182.42,270.26,216.58,162.9,226.34,162.9,123.86,128.74,128.74,153.14
133.73,94.69,123.97,211.81,167.89,109.33,177.65,114.21,75.17,80.05,70.29,104.45
60.21,11.41,40.69,143.17,99.25,26.05,104.13,45.57,6.53,6.53,1.65,35.81
11.52,-27.52,-3.12,79.84,40.8,-17.76,45.68,-8.0,-51.92,-51.92,-56.8,-22.64
2.11,-22.29,6.99,75.31,26.51,-7.65,36.27,-17.41,-51.57,-56.45,-71.09,-41.81
49.14,29.62,58.9,117.46,73.54,44.26,78.42,29.62,0.34,-4.54,-38.7,5.22
122.29,102.77,132.05,190.61,146.69,117.41,151.57,112.53,83.25,73.49,63.73,78.37
172.19,157.55,196.59,260.03,196.59,177.07,216.11,167.31,152.67,142.91,123.39,147.79
190.97,171.45,205.61,269.05,215.37,186.09,230.01,186.09,166.57,156.81,137.29,166.57
156.5,117.46,146.74,234.58,190.66,132.1,195.54,156.5,127.22,122.34,107.7,132.1
90.17,41.37,65.77,163.37,124.33,51.13,119.45,99.93,56.01,56.01,21.85,60.89
25.75,-8.41,15.99,94.07,55.03,1.35,59.91,30.63,-8.41,-3.53,-37.69,-3.53
7.98,-26.18,-6.66,66.54,32.38,-16.42,27.5,7.98,-31.06,-31.06,-65.22,-35.94
39.43,5.27,24.79,97.99,63.83,15.03,68.71,39.43,-4.49,0.39,-38.65,-9.37
103.1,64.06,88.46,171.42,132.38,73.82,142.14,112.86,73.82,73.82,29.9,54.3
161.89,142.37,176.53,239.97,186.29,157.01,200.93,171.65,132.61,137.49,93.57,127.73
193.34,183.58,217.74,266.54,212.86,198.22,237.26,203.1,159.18,168.94,125.02,159.18
180.45,165.81,190.21,239.01,199.97,175.57,209.73,180.45,136.53,156.05,107.25,136.53
116.03,81.87,106.27,184.35,145.31,91.63,145.31,120.91,76.99,96.51,52.59,67.23
39.94,15.54,44.82,113.14,64.34,30.18,78.98,54.58,10.66,30.18,-8.86,5.78
0.59,-33.57,-4.29,78.67,29.87,-18.93,44.51,24.99,-28.69,-14.05,-53.09,-28.69
19.37,-9.91,14.49,82.81,43.77,-0.15,48.65,34.01,-24.55,-5.03,-39.19,-19.67
83.91,54.63,74.15,137.59,108.31,64.39,113.19,98.55,44.87,54.63,20.47,44.87
152.18,127.78,152.18,215.62,176.58,137.54,181.46,181.46,122.9,132.66,93.62,113.14
204.09,184.57,204.09,252.89,223.61,194.33,228.49,208.97,160.17,169.93,150.41,160.17
184.92,180.04,214.2,258.12,204.44,194.68,228.84,189.8,150.76,160.52,141.0,155.64
136.23,111.83,141.11,209.43,160.63,126.47,180.15,150.87,106.95,116.71,97.19,106.95
67.59,38.31,62.71,131.03,91.99,48.07,106.63,77.35,38.31,52.95,13.91,28.55
14.02,-20.14,4.26,82.34,43.3,-10.38,48.18,23.78,-20.14,-5.5,-29.9,-15.26
4.61,-19.79,9.49,77.81,29.01,-5.15,38.77,19.25,-29.55,-10.03,-34.43,-19.79
56.52,41.88,66.28,115.08,76.04,51.64,76.04,66.28,12.6,27.24,2.84,22.36
129.67,115.03,139.43,188.23,149.19,124.79,149.19,134.55,80.87,95.51,75.99,90.63
194.21,169.81,189.33,247.89,213.73,179.57,218.61,199.09,150.29,155.17,150.29,155.17
203.23,164.19,188.59,271.55,232.51,173.95,237.39,217.87,169.07,169.07,159.31,164.19
173.64,139.48,154.12,222.44,198.04,144.36,183.4,178.52,124.84,119.96,100.44,115.08
107.31,78.03,87.79,141.47,126.83,82.91,107.31,92.67,48.75,43.87,29.23,43.87
28.25,8.73,33.13,86.81,47.77,18.49,57.53,28.25,-10.79,-10.79,-15.67,-10.79
0.72,-9.04,20.24,64.16,20.24,5.6,34.88,5.6,-33.44,-33.44,-38.32,-33.44
37.05,12.65,37.05,100.49,61.45,22.41,66.33,37.05,-6.87,-6.87,-11.75,2.89
100.72,76.32,105.6,173.92,125.12,90.96,130.0,100.72,56.8,56.8,51.92,66.56
174.15,159.51,183.91,232.71,193.67,169.27,188.79,169.27,115.59,115.59,115.59,130.23
205.6,190.96,215.36,264.16,225.12,200.72,230.0,200.72,147.04,151.92,151.92,161.68
187.83,158.55,178.07,241.51,212.23,168.31,207.35,182.95,129.27,124.39,139.03,148.79
123.41,89.25,108.77,181.97,147.81,99.01,142.93,113.65,64.85,55.09,79.49,84.37
47.32,13.16,37.56,115.64,76.6,22.92,71.72,37.56,-6.36,-16.12,-6.36,3.4
7.97,-26.19,-1.79,76.29,37.25,-16.43,27.49,-11.55,-55.47,-60.35,-45.71,-35.95
21.87,-2.53,21.87,85.31,46.27,7.23,41.39,7.23,-36.69,-41.57,-22.05,-17.17
81.53,42.49,66.89,149.85,110.81,52.25,105.93,66.89,18.09,13.21,22.97,42.49
159.56,115.64,135.16,223.0,188.84,125.4,183.96,130.28,86.36,81.48,101.0,115.64
196.83,162.67,191.95,274.91,226.11,177.31,226.11,177.31,123.63,123.63,143.15,157.79
192.3,163.02,192.3,265.5,221.58,177.66,216.7,172.78,104.46,114.22,133.74,153.26
138.73,119.21,148.49,207.05,163.13,133.85,158.25,119.21,46.01,55.77,89.93,94.81
55.45,40.81,79.85,143.29,79.85,60.33,84.73,40.81,-27.51,-27.51,11.53,16.41
6.76,-22.52,11.64,89.72,36.04,-7.88,26.28,-7.88,-85.96,-85.96,-51.8,-42.04
2.23,-36.81,-2.65,90.07,36.39,-22.17,36.39,-7.53,-75.85,-80.73,-41.69,-36.81
49.26,15.1,49.26,137.1,83.42,29.74,78.54,24.86,-38.58,-38.58,-9.3,10.22
127.29,102.89,132.17,200.49,151.69,117.53,146.81,93.13,24.81,29.69,58.97,78.49
186.95,162.55,191.83,260.15,211.35,177.19,206.47,143.03,79.59,89.35,118.63,133.27
195.97,156.93,191.09,283.81,230.13,171.57,225.25,166.69,98.37,108.13,147.17,152.05
151.74,122.46,161.5,244.46,185.9,141.98,195.66,122.46,49.26,68.78,98.06,117.58
75.65,46.37,90.29,178.13,109.81,65.89,119.57,51.25,-26.83,-7.31,31.73,41.49
11.23,-18.05,25.87,113.71,45.39,1.47,55.15,-13.17,-86.37,-71.73,-37.57,-22.93
-16.3,-40.7,8.1,95.94,17.86,-16.3,32.5,-35.82,-109.02,-99.26,-65.1,-40.7
15.15,-9.25,39.55,127.39,49.31,15.15,59.07,-9.25,-82.45,-72.69,-38.53,-14.13
83.7,54.42,103.22,195.94,122.74,78.82,127.62,59.3,-9.02,-4.14,44.66,49.54
152.25,113.21,162.01,269.37,196.17,137.61,196.17,122.97,64.41,69.29,103.45,122.97
183.7,139.78,188.58,305.7,227.62,164.18,232.5,154.42,95.86,100.74,149.54,159.3
161.05,136.65,185.45,273.29,195.21,161.05,204.97,126.89,68.33,78.09,102.49,126.89
96.63,81.99,130.79,203.99,125.91,106.39,135.67,57.59,-5.85,-5.85,23.43,52.71
30.3,1.02,44.94,132.78,64.46,20.54,69.34,-8.74,-81.94,-67.3,-33.14,-3.86
0.71,-28.57,5.59,83.67,29.99,-13.93,34.87,-48.09,-131.05,-116.41,-82.25,-52.97
4.85,-14.67,29.25,102.45,34.13,4.85,43.89,-39.07,-122.03,-107.39,-73.23,-43.95
64.51,25.47,69.39,171.87,103.55,44.99,108.43,25.47,-57.49,-52.61,-13.57,20.59
132.78,83.98,132.78,254.78,181.58,108.38,186.46,103.5,20.54,25.42,64.46,93.74
184.69,145.65,189.57,292.05,223.73,165.17,228.61,145.65,72.45,72.45,121.25,140.77
180.16,141.12,185.04,287.52,219.2,160.64,219.2,136.24,63.04,63.04,106.96,141.12
107.07,77.79,141.23,248.59,150.99,107.07,165.63,87.55,14.35,14.35,63.15,87.55
43.31,18.91,72.59,165.31,82.35,43.31,92.11,14.03,-59.17,-49.41,4.27,14.03
-10.26,-34.66,19.02,111.74,28.78,-10.26,38.54,-44.42,-122.5,-107.86,-63.94,-39.54
-5.03,-39.19,4.73,102.33,34.01,-19.67,24.25,-53.83,-131.91,-112.39,-68.47,-39.19
42.0,7.84,51.76,149.36,81.04,27.36,76.16,2.96,-80.0,-65.36,-21.44,7.84
110.27,76.11,124.91,227.39,149.31,100.51,149.31,71.23,-11.73,2.91,51.71,71.23
165.05,130.89,184.57,291.93,208.97,155.29,218.73,135.77,52.81,57.69,111.37,130.89
178.95,149.67,203.35,300.95,217.99,174.07,232.63,144.79,61.83,71.59,120.39,135.03
134.72,110.32,168.88,266.48,173.76,139.6,178.64,95.68,12.72,17.6,56.64,85.92
68.39,43.99,97.67,190.39,107.43,68.39,112.31,24.47,-53.61,-48.73,-24.33,19.59
8.85,-20.43,28.37,121.09,47.89,3.97,43.01,-39.95,-113.15,-108.27,-88.75,-39.95
-23.56,-43.08,15.48,103.32,15.48,-13.8,20.36,-62.6,-135.8,-130.92,-111.4,-62.6
12.77,-11.63,42.05,134.77,51.81,12.77,51.81,-31.15,-109.23,-99.47,-79.95,-26.27
86.2,56.92,105.72,198.44,125.24,81.32,120.36,42.28,-40.68,-26.04,-1.64,47.16
159.63,125.47,169.39,266.99,198.67,144.99,188.91,110.83,27.87,42.51,81.55,120.59
191.08,152.04,195.96,298.44,230.12,171.56,225.24,147.16,59.32,73.96,108.12,152.04
163.55,129.39,178.19,280.67,202.59,153.79,202.59,114.75,31.79,36.67,80.59,124.51
99.13,50.33,99.13,221.13,147.93,74.73,147.93,60.09,-22.87,-17.99,25.93,64.97
23.04,-25.76,27.92,154.8,71.84,-1.36,76.72,-11.12,-94.08,-94.08,-59.92,-16.0
-16.31,-55.35,-1.67,110.57,27.61,-30.95,27.61,-65.11,-143.19,-138.31,-94.39,-55.35
7.35,-46.33,-2.41,124.47,56.15,-26.81,51.27,-41.45,-124.41,-114.65,-65.85,-36.57
57.25,18.21,71.89,184.13,101.17,42.61,96.29,8.45,-74.51,-59.87,-30.59,18.21
120.64,101.12,164.56,257.28,159.68,130.4,169.44,76.72,-11.12,8.4,42.56,91.36
172.55,148.15,206.71,304.31,211.59,177.43,221.35,128.63,40.79,55.43,104.23,148.15
172.9,148.5,202.18,294.9,211.94,172.9,202.18,124.1,31.38,36.26,80.18,133.86
119.33,94.93,148.61,241.33,158.37,119.33,158.37,75.41,-17.31,-7.55,36.37,85.17
40.93,6.77,65.33,177.57,84.85,36.05,89.73,6.77,-81.07,-81.07,-32.27,21.41
-12.64,-46.8,11.76,124.0,31.28,-17.52,36.16,-46.8,-134.64,-134.64,-90.72,-37.04
-7.41,-41.57,7.23,109.71,31.63,-17.17,31.63,-51.33,-139.17,-139.17,-90.37,-46.45
34.74,5.46,59.14,156.74,73.78,29.86,73.78,-9.18,-97.02,-97.02,-48.22,-4.3
107.89,68.85,122.53,234.77,151.81,93.25,151.81,68.85,-18.99,-18.99,20.05,68.85
162.67,118.75,177.31,304.19,211.47,148.03,216.35,128.51,40.67,45.55,74.83,133.39
171.69,142.41,205.85,313.21,215.61,171.69,220.49,137.53,44.81,54.57,88.73,142.41
142.1,112.82,166.5,264.1,181.14,137.22,181.14,93.3,5.46,10.34,49.38,98.18
66.01,31.85,90.41,202.65,109.93,61.13,109.93,31.85,-65.75,-60.87,-16.95,31.85
1.59,-37.45,21.11,138.23,50.39,-8.17,45.51,-32.57,-135.05,-120.41,-81.37,-32.57
-16.18,-55.22,-1.54,110.7,27.74,-30.82,27.74,-50.34,-147.94,-152.82,-99.14,-55.22
10.39,-33.53,25.03,151.91,59.19,-4.25,64.07,-23.77,-121.37,-121.37,-72.57,-23.77
83.82,39.9,93.58,215.58,132.62,64.3,127.74,39.9,-52.82,-57.7,-8.9,35.02
157.25,118.21,167.01,274.37,201.17,142.61,196.29,98.69,15.73,10.85,59.65,103.57
183.82,159.42,213.1,305.82,222.86,183.82,217.98,130.14,47.18,37.42,81.34,130.14
166.05,141.65,190.45,278.29,200.21,166.05,195.33,102.61,19.65,19.65,53.81,102.61
101.63,67.47,116.27,218.75,140.67,91.87,130.91,38.19,-39.89,-39.89,18.67,43.07
30.42,-23.26,25.54,157.3,79.22,1.14,64.58,-28.14,-111.1,-106.22,-52.54,-18.38
-8.93,-57.73,-8.93,113.07,39.87,-33.33,34.99,-57.73,-145.57,-145.57,-96.77,-47.97
4.97,-38.95,9.85,126.97,48.89,-14.55,39.13,-53.59,-141.43,-141.43,-87.75,-43.83
64.63,10.95,59.75,191.51,113.43,35.35,98.79,15.83,-81.77,-86.65,-32.97,15.83
142.66,84.1,128.02,259.78,191.46,103.62,171.94,88.98,-3.74,-8.62,45.06,93.86
189.69,121.37,165.29,311.69,243.37,140.89,223.85,136.01,43.29,38.41,96.97,136.01
170.52,121.72,180.28,312.04,224.2,151.0,229.08,141.24,53.4,43.64,92.44,146.12
126.71,82.79,131.59,248.71,170.63,107.19,170.63,73.03,-14.81,-24.57,24.23,82.79
53.19,9.27,58.07,175.19,97.11,33.67,87.35,-5.37,-88.33,-93.21,-54.17,4.39
4.5,-54.06,-10.14,121.62,53.3,-34.54,38.66,-54.06,-137.02,-141.9,-83.34,-39.42
-4.91,-68.35,-19.55,126.85,48.77,-43.95,29.25,-58.59,-146.43,-146.43,-102.51,-48.83
47.0,-6.68,37.24,164.12,95.8,12.84,71.4,-11.56,-104.28,-109.16,-65.24,-6.68
115.27,56.71,105.51,242.15,168.95,81.11,149.43,66.47,-26.25,-31.13,12.79,71.35
174.93,121.25,170.05,301.81,223.73,145.65,209.09,126.13,33.41,23.65,72.45,131.01
188.83,135.15,183.95,315.71,237.63,159.55,227.87,140.03,47.31,42.43,86.35,144.91
144.6,105.56,159.24,271.48,188.52,129.96,193.4,105.56,12.84,3.08,47.0,105.56
78.27,39.23,88.03,195.39,122.19,63.63,122.19,24.59,-63.25,-68.13,-24.21,24.59
28.49,-10.55,23.61,116.33,62.65,4.09,48.01,-49.59,-132.55,-142.31,-98.39,-49.59
0.96,-33.2,5.84,98.56,35.12,-13.68,25.36,-72.24,-155.2,-160.08,-116.16,-67.36
32.41,-26.15,12.89,139.77,81.21,-6.63,66.57,-35.91,-123.75,-123.75,-79.83,-21.27
100.96,32.64,71.68,213.2,154.64,52.16,144.88,37.52,-50.32,-50.32,-1.52,52.16
164.63,101.19,145.11,286.63,218.31,120.71,208.55,115.83,18.23,13.35,67.03,120.71
200.96,142.4,181.44,308.32,249.76,161.92,240.0,142.4,44.8,39.92,93.6,147.28
173.43,124.63,168.55,285.67,217.35,144.15,207.59,114.87,22.15,12.39,66.07,124.63
99.25,55.33,109.01,231.01,148.05,79.73,143.17,50.45,-27.63,-47.15,6.53,60.21
32.92,-20.76,28.04,159.8,81.72,3.64,76.84,-15.88,-98.84,-113.48,-54.92,-20.76
-6.43,-55.23,-6.43,115.57,42.37,-30.83,32.61,-64.99,-138.19,-157.71,-104.03,-60.11
17.23,-31.57,7.47,119.71,61.15,-12.05,51.39,-46.21,-119.41,-143.81,-80.37,-41.33
72.01,37.85,81.77,179.37,111.05,57.37,106.17,8.57,-64.63,-84.15,-25.59,13.45
140.28,111.0,159.8,252.52,179.32,135.4,174.44,76.84,3.64,-11.0,37.8,86.6
197.07,158.03,197.07,294.67,236.11,177.55,221.47,128.75,50.67,36.03,89.71,143.39
192.54,143.74,182.78,295.02,236.46,163.26,221.82,129.1,41.26,31.5,90.06,138.86
138.97,95.05,134.09,241.45,178.01,114.57,168.25,70.65,-17.19,-26.95,46.25,80.41
65.45,21.53,60.57,167.93,104.49,41.05,94.73,-2.87,-90.71,-105.35,-27.27,6.89
7.0,-46.68,-2.76,124.12,55.8,-27.16,36.28,-56.44,-144.28,-158.92,-90.6,-46.68
7.35,-41.45,-2.41,109.83,51.27,-21.93,36.63,-60.97,-148.81,-163.45,-104.89,-60.97
49.5,15.34,59.26,156.86,88.54,34.86,83.66,-18.82,-101.78,-111.54,-57.86,-13.94
112.89,93.37,147.05,230.01,147.05,117.77,156.81,49.45,-28.63,-43.27,10.41,59.21
172.55,143.27,196.95,294.55,211.59,167.67,221.35,118.87,35.91,21.27,74.95,123.75
186.45,147.41,201.09,313.33,230.37,171.81,240.13,132.77,44.93,35.17,103.49,142.53
151.98,108.06,156.86,273.98,195.9,132.46,200.78,98.3,10.46,0.7,73.9,112.94
80.77,31.97,80.77,202.77,129.57,56.37,129.57,31.97,-55.87,-65.63,7.57,46.61
11.47,-42.21,11.47,148.11,65.15,-17.81,70.03,-32.45,-120.29,-130.05,-61.73,-27.57
-11.18,-55.1,-1.42,120.58,37.62,-30.7,42.5,-64.86,-147.82,-157.58,-94.14,-55.1
20.27,-28.53,25.15,152.03,69.07,-4.13,69.07,-33.41,-111.49,-140.77,-67.57,-28.53
98.58,40.02,83.94,215.7,147.38,59.54,137.62,35.14,-47.82,-67.34,0.98,40.02
167.13,123.21,167.13,279.37,211.05,142.73,206.17,98.81,20.73,6.09,69.53,108.57
188.82,154.66,208.34,315.7,232.74,179.06,232.74,125.38,47.3,27.78,105.86,135.14
166.17,127.13,180.81,293.05,210.09,151.53,210.09,102.73,24.65,10.01,78.33,117.37
106.63,67.59,116.39,223.75,150.55,91.99,145.67,43.19,-39.77,-54.41,9.03,52.95
30.54,-8.5,45.18,157.42,74.46,15.9,79.34,-28.02,-110.98,-120.74,-62.18,-13.38
-8.81,-47.85,5.83,118.07,35.11,-23.45,44.87,-57.61,-140.57,-155.21,-91.77,-47.85
5.09,-48.59,5.09,141.73,58.77,-24.19,63.65,-38.83,-126.67,-141.31,-77.87,-33.95
64.75,15.95,69.63,196.51,113.55,40.35,113.55,11.07,-76.77,-86.53,-23.09,15.95
147.66,103.74,147.66,259.9,191.58,123.26,191.58,89.1,1.26,-18.26,50.06,84.22
194.69,160.53,204.45,302.05,233.73,180.05,228.85,131.25,38.53,23.89,87.33,121.49
190.16,160.88,204.8,292.64,224.32,180.4,219.44,116.96,29.12,9.6,97.44,112.08
141.47,97.55,136.59,243.95,180.51,117.07,170.75,63.39,-14.69,-43.97,38.99,63.39
67.95,-5.25,33.79,185.07,121.63,14.27,106.99,-0.37,-88.21,-102.85,-29.65,-0.37
9.5,-49.06,-5.14,126.62,58.3,-29.54,48.54,-53.94,-141.78,-151.54,-78.34,-49.06
-9.67,-43.83,14.73,126.97,34.25,-14.55,48.89,-58.47,-146.31,-156.07,-53.59,-48.71
42.24,8.08,61.76,169.12,86.16,32.48,91.04,-16.32,-104.16,-118.8,-11.44,-1.68
120.27,81.23,130.03,237.39,164.19,105.63,164.19,66.59,-31.01,-40.77,42.19,71.47
179.93,131.13,179.93,301.93,228.73,155.53,223.85,126.25,28.65,18.89,121.37,131.13
193.83,145.03,193.83,315.83,242.63,169.43,242.63,145.03,47.43,32.79,140.15,154.79
159.36,115.44,159.36,271.6,203.28,134.96,208.16,105.68,12.96,-6.56,71.52,110.56
83.27,44.23,93.03,200.39,127.19,68.63,136.95,19.83,-63.13,-77.77,-4.57,24.71
18.85,-20.19,28.61,135.97,62.77,4.21,72.53,-44.59,-132.43,-147.07,-68.99,-39.71
-8.68,-52.6,1.08,123.08,40.12,-28.2,49.88,-72.12,-155.08,-174.6,-91.64,-62.36
22.77,-26.03,27.65,154.53,71.57,-1.63,71.57,-40.67,-128.51,-143.15,-60.19,-30.91
101.08,52.28,96.2,213.32,145.0,71.8,140.12,27.88,-69.72,-74.6,8.36,37.64
164.75,125.71,174.51,281.87,208.67,150.11,203.79,101.31,-1.17,-6.05,72.03,101.31
196.2,147.4,196.2,318.2,245.0,171.8,230.36,127.88,25.4,20.52,98.6,127.88
173.55,124.75,173.55,295.55,222.35,149.15,217.47,110.11,12.51,2.75,80.83,110.11
104.25,74.97,128.65,226.25,143.29,99.37,153.05,45.69,-51.91,-66.55,21.29,40.81
42.8,13.52,57.44,145.28,76.96,33.04,81.84,-30.4,-123.12,-142.64,-54.8,-35.28
3.45,-55.11,-11.19,120.57,52.25,-35.59,52.25,-64.87,-152.71,-172.23,-99.03,-59.99
12.47,-46.09,2.71,139.35,66.15,-21.69,66.15,-50.97,-138.81,-153.45,-80.25,-46.09
67.25,18.45,72.13,199.01,116.05,42.85,120.93,3.81,-84.03,-93.79,-15.71,13.57
135.52,81.84,140.4,281.92,189.2,111.12,198.96,76.96,-10.88,-25.52,57.44,91.6
192.31,133.75,182.55,319.19,245.99,158.15,241.11,123.99,31.27,21.51,114.23,138.63
187.78,124.34,173.14,319.54,241.46,148.74,236.58,124.34,26.74,16.98,109.7,134.1
129.33,65.89,119.57,270.85,187.89,90.29,183.01,70.77,-31.71,-41.47,56.13,80.53
55.81,7.01,60.69,187.57,104.61,31.41,109.49,-2.75,-105.23,-110.11,-22.27,7.01
-2.64,-41.68,16.88,134.0,46.16,-12.4,51.04,-56.32,-158.8,-168.56,-85.6,-51.44
-7.17,-31.57,26.99,124.59,31.87,-2.29,51.39,-65.73,-163.33,-173.09,-95.01,-60.85
44.74,20.34,74.02,166.74,83.78,44.74,98.42,-23.58,-116.3,-126.06,-47.98,-13.82
108.13,78.85,142.29,249.65,152.05,108.13,176.45,59.33,-33.39,-48.03,30.05,64.21
172.67,138.51,197.07,309.31,216.59,167.79,231.23,114.11,21.39,11.63,89.71,118.99
191.45,137.77,191.45,328.09,245.13,162.17,259.77,132.89,45.05,35.29,113.37,142.65
147.22,88.66,147.22,293.62,205.78,117.94,220.42,93.54,-4.06,-8.94,69.14,98.42
80.89,27.21,80.89,217.53,134.57,51.61,149.21,22.33,-80.15,-89.91,2.81,22.33
11.59,-27.45,31.11,148.23,60.39,1.83,75.03,-46.97,-149.45,-154.33,-66.49,-46.97
-11.06,-40.34,18.22,120.7,32.86,-11.06,42.62,-74.5,-172.1,-181.86,-113.54,-79.38
15.51,-18.65,44.79,161.91,64.31,10.63,83.83,-33.29,-130.89,-145.53,-72.33,-38.17
79.18,35.26,103.58,240.22,132.86,69.42,157.26,40.14,-57.46,-72.1,15.74,30.38
157.49,118.45,177.01,294.13,206.29,147.73,225.81,103.81,6.21,-3.55,94.05,98.93
184.06,149.9,213.34,330.46,232.86,179.18,257.26,135.26,47.42,32.78,110.86,135.26
161.41,122.37,185.81,307.81,210.21,151.65,229.73,107.73,24.77,5.25,73.57,112.61
101.87,67.71,126.27,238.51,145.79,96.99,165.31,43.31,-49.41,-64.05,23.79,48.19
